t[s]	x	Tg[10^9K]	dTg/dt[10^9K/s]	rho_tot[g cm^-3]	H[s^-1]	n nue->p e	p e->n nue	n->p e nue	p e nue->n	n e->p nue	p nue->n e
3.107943e-06	1.025315e-02	1.132462e+03	-9.005205e+06	1.185815e+14	8.145297e+03	3.542427e+12	3.495762e+12	2.516927e-01	2.483771e-01	3.542426e+12	3.495761e+12
6.373070e-06	1.051271e-02	1.104855e+03	-8.455319e+06	1.074393e+14	7.753182e+03	3.135873e+12	3.093549e+12	2.517338e-01	2.483362e-01	3.135872e+12	3.093549e+12
9.805336e-06	1.077884e-02	1.078289e+03	-7.739871e+06	9.723017e+13	7.375628e+03	2.772291e+12	2.733946e+12	2.517764e-01	2.482939e-01	2.772291e+12	2.733946e+12
1.341133e-05	1.105171e-02	1.052110e+03	-7.260058e+06	8.808727e+13	7.020290e+03	2.455070e+12	2.420282e+12	2.518194e-01	2.482512e-01	2.455070e+12	2.420282e+12
1.720175e-05	1.133148e-02	1.026764e+03	-6.686878e+06	7.972381e+13	6.678709e+03	2.171547e+12	2.140016e+12	2.518639e-01	2.482069e-01	2.171546e+12	2.140016e+12
2.118485e-05	1.161834e-02	1.002043e+03	-6.206258e+06	7.219738e+13	6.355639e+03	1.922625e+12	1.894025e+12	2.519092e-01	2.481619e-01	1.922624e+12	1.894024e+12
2.537047e-05	1.191246e-02	9.779487e+02	-5.756533e+06	6.537966e+13	6.048112e+03	1.702374e+12	1.676430e+12	2.519556e-01	2.481158e-01	1.702374e+12	1.676430e+12
2.976883e-05	1.221403e-02	9.544589e+02	-5.340601e+06	5.920821e+13	5.755585e+03	1.507595e+12	1.484058e+12	2.520030e-01	2.480687e-01	1.507594e+12	1.484057e+12
3.439066e-05	1.252323e-02	9.315563e+02	-4.955305e+06	5.362092e+13	5.477288e+03	1.335285e+12	1.313929e+12	2.520516e-01	2.480205e-01	1.335285e+12	1.313929e+12
3.924727e-05	1.284025e-02	9.092262e+02	-4.597867e+06	4.856203e+13	5.212510e+03	1.182821e+12	1.163442e+12	2.521013e-01	2.479711e-01	1.182821e+12	1.163442e+12
4.435052e-05	1.316531e-02	8.874547e+02	-4.266214e+06	4.398151e+13	4.960593e+03	1.047903e+12	1.030317e+12	2.521522e-01	2.479205e-01	1.047903e+12	1.030316e+12
4.971285e-05	1.349859e-02	8.662277e+02	-3.958542e+06	3.983408e+13	4.720912e+03	9.285002e+11	9.125389e+11	2.522043e-01	2.478688e-01	9.284999e+11	9.125386e+11
5.534736e-05	1.384031e-02	8.455314e+02	-3.673126e+06	3.607868e+13	4.492870e+03	8.228168e+11	8.083286e+11	2.522577e-01	2.478159e-01	8.228165e+11	8.083284e+11
6.126779e-05	1.419068e-02	8.253525e+02	-3.408350e+06	3.267818e+13	4.275899e+03	7.292654e+11	7.161130e+11	2.523122e-01	2.477618e-01	7.292651e+11	7.161128e+11
6.748854e-05	1.454991e-02	8.056780e+02	-3.162724e+06	2.959895e+13	4.069459e+03	6.464434e+11	6.345023e+11	2.523681e-01	2.477064e-01	6.464432e+11	6.345021e+11
7.402479e-05	1.491825e-02	7.864950e+02	-2.934867e+06	2.681057e+13	3.873036e+03	5.731113e+11	5.622687e+11	2.524252e-01	2.476497e-01	5.731110e+11	5.622685e+11
8.089244e-05	1.529590e-02	7.677910e+02	-2.723495e+06	2.428549e+13	3.686141e+03	5.081733e+11	4.983271e+11	2.524837e-01	2.475917e-01	5.081731e+11	4.983269e+11
8.810820e-05	1.568312e-02	7.495537e+02	-2.527415e+06	2.199880e+13	3.508310e+03	4.506611e+11	4.417187e+11	2.525436e-01	2.475324e-01	4.506609e+11	4.417185e+11
9.568962e-05	1.608014e-02	7.317714e+02	-2.345523e+06	1.992793e+13	3.339101e+03	3.997186e+11	3.915960e+11	2.526048e-01	2.474717e-01	3.997184e+11	3.915958e+11
1.036551e-04	1.648721e-02	7.144321e+02	-2.176790e+06	1.805246e+13	3.178094e+03	3.545890e+11	3.472102e+11	2.526674e-01	2.474096e-01	3.545888e+11	3.472100e+11
1.120241e-04	1.690459e-02	6.975246e+02	-2.020264e+06	1.635390e+13	3.024887e+03	3.146033e+11	3.078994e+11	2.527315e-01	2.473461e-01	3.146032e+11	3.078993e+11
1.208168e-04	1.733253e-02	6.810378e+02	-1.875062e+06	1.481553e+13	2.879102e+03	2.791701e+11	2.730787e+11	2.527971e-01	2.472811e-01	2.791700e+11	2.730785e+11
1.300546e-04	1.777131e-02	6.649606e+02	-1.740366e+06	1.342219e+13	2.740376e+03	2.477664e+11	2.422308e+11	2.528642e-01	2.472147e-01	2.477663e+11	2.422306e+11
1.397600e-04	1.822119e-02	6.492824e+02	-1.615411e+06	1.216018e+13	2.608366e+03	2.199297e+11	2.148985e+11	2.529328e-01	2.471467e-01	2.199296e+11	2.148984e+11
1.499564e-04	1.868246e-02	6.339929e+02	-1.499495e+06	1.101709e+13	2.482743e+03	1.952510e+11	1.906778e+11	2.530030e-01	2.470772e-01	1.952509e+11	1.906777e+11
1.606686e-04	1.915541e-02	6.190819e+02	-1.391963e+06	9.981672e+12	2.363198e+03	1.733686e+11	1.692112e+11	2.530749e-01	2.470061e-01	1.733685e+11	1.692111e+11
1.719226e-04	1.964033e-02	6.045394e+02	-1.292206e+06	9.043767e+12	2.249434e+03	1.539625e+11	1.501827e+11	2.531483e-01	2.469334e-01	1.539624e+11	1.501826e+11
1.837457e-04	2.013753e-02	5.903557e+02	-1.199663e+06	8.194164e+12	2.141168e+03	1.367498e+11	1.333128e+11	2.532235e-01	2.468591e-01	1.367497e+11	1.333127e+11
1.961664e-04	2.064731e-02	5.765214e+02	-1.113809e+06	7.424526e+12	2.038135e+03	1.214799e+11	1.183543e+11	2.533004e-01	2.467831e-01	1.214798e+11	1.183542e+11
2.092149e-04	2.117000e-02	5.630272e+02	-1.034160e+06	6.727309e+12	1.940078e+03	1.079314e+11	1.050886e+11	2.533790e-01	2.467053e-01	1.079313e+11	1.050885e+11
2.229228e-04	2.170592e-02	5.498639e+02	-9.602670e+05	6.095678e+12	1.846756e+03	9.590807e+10	9.332225e+10	2.534595e-01	2.466258e-01	9.590800e+10	9.332218e+10
2.373232e-04	2.225541e-02	5.370229e+02	-8.917109e+05	5.523448e+12	1.757938e+03	8.523651e+10	8.288416e+10	2.535417e-01	2.465445e-01	8.523644e+10	8.288410e+10
2.524511e-04	2.281881e-02	5.244954e+02	-8.281050e+05	5.005020e+12	1.673406e+03	7.576310e+10	7.362291e+10	2.536259e-01	2.464614e-01	7.576304e+10	7.362286e+10
2.683431e-04	2.339647e-02	5.122730e+02	-7.690900e+05	4.535321e+12	1.592951e+03	6.735188e+10	6.540452e+10	2.537120e-01	2.463764e-01	6.735182e+10	6.540446e+10
2.850376e-04	2.398875e-02	5.003476e+02	-7.143325e+05	4.109762e+12	1.516376e+03	5.988247e+10	5.811038e+10	2.538001e-01	2.462894e-01	5.988242e+10	5.811033e+10
3.025750e-04	2.459603e-02	4.887111e+02	-6.635256e+05	3.724183e+12	1.443491e+03	5.324829e+10	5.163555e+10	2.538902e-01	2.462005e-01	5.324825e+10	5.163550e+10
3.209978e-04	2.521868e-02	4.773556e+02	-6.163802e+05	3.374821e+12	1.374117e+03	4.735494e+10	4.588707e+10	2.539823e-01	2.461096e-01	4.735489e+10	4.588702e+10
3.403507e-04	2.585710e-02	4.662736e+02	-5.726319e+05	3.058266e+12	1.308085e+03	4.211879e+10	4.078267e+10	2.540766e-01	2.460166e-01	4.211875e+10	4.078263e+10
3.606803e-04	2.651167e-02	4.554576e+02	-5.320337e+05	2.771431e+12	1.245233e+03	3.746578e+10	3.624948e+10	2.541731e-01	2.459215e-01	3.746574e+10	3.624944e+10
3.820360e-04	2.718282e-02	4.449002e+02	-4.943561e+05	2.511519e+12	1.185405e+03	3.333028e+10	3.222297e+10	2.542718e-01	2.458243e-01	3.333024e+10	3.222294e+10
4.044694e-04	2.787095e-02	4.345946e+02	-4.593882e+05	2.276000e+12	1.128456e+03	2.965414e+10	2.864598e+10	2.543727e-01	2.457248e-01	2.965410e+10	2.864595e+10
4.280348e-04	2.857651e-02	4.245337e+02	-4.269330e+05	2.062579e+12	1.074246e+03	2.638580e+10	2.546786e+10	2.544760e-01	2.456230e-01	2.638577e+10	2.546783e+10
4.527894e-04	2.929993e-02	4.147109e+02	-3.968071e+05	1.869181e+12	1.022643e+03	2.347957e+10	2.264373e+10	2.545817e-01	2.455190e-01	2.347954e+10	2.264370e+10
4.787931e-04	3.004166e-02	4.051197e+02	-3.688427e+05	1.693923e+12	9.735209e+02	2.089495e+10	2.013382e+10	2.546899e-01	2.454125e-01	2.089492e+10	2.013380e+10
5.061089e-04	3.080217e-02	3.957536e+02	-3.428820e+05	1.535102e+12	9.267595e+02	1.859600e+10	1.790288e+10	2.548006e-01	2.453036e-01	1.859598e+10	1.790286e+10
5.348028e-04	3.158193e-02	3.866065e+02	-3.187800e+05	1.391174e+12	8.822450e+02	1.655086e+10	1.591966e+10	2.549139e-01	2.451921e-01	1.655084e+10	1.591963e+10
5.649446e-04	3.238143e-02	3.776725e+02	-2.964007e+05	1.260741e+12	8.398688e+02	1.473127e+10	1.415642e+10	2.550299e-01	2.450781e-01	1.473125e+10	1.415640e+10
5.966072e-04	3.320117e-02	3.689456e+02	-2.756206e+05	1.142537e+12	7.995281e+02	1.311214e+10	1.258862e+10	2.551486e-01	2.449615e-01	1.311212e+10	1.258859e+10
6.298673e-04	3.404166e-02	3.604203e+02	-2.563226e+05	1.035415e+12	7.611245e+02	1.167121e+10	1.119442e+10	2.552702e-01	2.448421e-01	1.167119e+10	1.119440e+10
6.648057e-04	3.490343e-02	3.520910e+02	-2.383997e+05	9.383345e+11	7.245649e+02	1.038872e+10	9.954506e+09	2.553946e-01	2.447199e-01	1.038871e+10	9.954488e+09
7.015070e-04	3.578701e-02	3.439524e+02	-2.217521e+05	8.503538e+11	6.897605e+02	9.247147e+09	8.851698e+09	2.555221e-01	2.445948e-01	9.247129e+09	8.851681e+09
7.400603e-04	3.669297e-02	3.359993e+02	-2.062879e+05	7.706198e+11	6.566268e+02	8.230896e+09	7.870762e+09	2.556526e-01	2.444668e-01	8.230879e+09	7.870746e+09
7.805591e-04	3.762185e-02	3.282268e+02	-1.919205e+05	6.983592e+11	6.250833e+02	7.326135e+09	6.998174e+09	2.557863e-01	2.443357e-01	7.326120e+09	6.998159e+09
8.231017e-04	3.857426e-02	3.206299e+02	-1.785708e+05	6.328715e+11	5.950538e+02	6.520575e+09	6.221924e+09	2.559232e-01	2.442015e-01	6.520561e+09	6.221910e+09
8.677913e-04	3.955077e-02	3.132041e+02	-1.661650e+05	5.735219e+11	5.664655e+02	5.803295e+09	5.531348e+09	2.560635e-01	2.440641e-01	5.803281e+09	5.531335e+09
9.147364e-04	4.055200e-02	3.059447e+02	-1.546346e+05	5.197353e+11	5.392493e+02	5.164589e+09	4.916974e+09	2.562072e-01	2.439234e-01	5.164576e+09	4.916962e+09
9.640510e-04	4.157858e-02	2.988475e+02	-1.439167e+05	4.709905e+11	5.133394e+02	4.595830e+09	4.370386e+09	2.563545e-01	2.437793e-01	4.595818e+09	4.370375e+09
1.015855e-03	4.263115e-02	2.919083e+02	-1.339523e+05	4.268151e+11	4.886730e+02	4.089346e+09	3.884105e+09	2.565054e-01	2.436316e-01	4.089335e+09	3.884094e+09
1.070274e-03	4.371036e-02	2.851229e+02	-1.246874e+05	3.867811e+11	4.651908e+02	3.638316e+09	3.451484e+09	2.566602e-01	2.434804e-01	3.638305e+09	3.451474e+09
1.127440e-03	4.481689e-02	2.784876e+02	-1.160714e+05	3.505004e+11	4.428358e+02	3.236669e+09	3.066613e+09	2.568188e-01	2.433254e-01	3.236659e+09	3.066603e+09
1.187491e-03	4.595144e-02	2.719985e+02	-1.080582e+05	3.176215e+11	4.215542e+02	2.879008e+09	2.724238e+09	2.569814e-01	2.431666e-01	2.878998e+09	2.724229e+09
1.250575e-03	4.711470e-02	2.656521e+02	-1.006036e+05	2.878258e+11	4.012946e+02	2.560524e+09	2.419683e+09	2.571482e-01	2.430038e-01	2.560515e+09	2.419675e+09
1.316844e-03	4.830742e-02	2.594448e+02	-9.366809e+04	2.608243e+11	3.820081e+02	2.276943e+09	2.148794e+09	2.573192e-01	2.428370e-01	2.276934e+09	2.148786e+09
1.386458e-03	4.953032e-02	2.533734e+02	-8.721474e+04	2.363554e+11	3.636480e+02	2.024456e+09	1.907871e+09	2.574946e-01	2.426660e-01	2.024448e+09	1.907864e+09
1.459587e-03	5.078419e-02	2.474347e+02	-8.120867e+04	2.141816e+11	3.461701e+02	1.799671e+09	1.693623e+09	2.576746e-01	2.424907e-01	1.799664e+09	1.693616e+09
1.536408e-03	5.206980e-02	2.416256e+02	-7.561856e+04	1.940880e+11	3.295322e+02	1.599570e+09	1.503120e+09	2.578592e-01	2.423109e-01	1.599564e+09	1.503114e+09
1.617108e-03	5.338795e-02	2.359432e+02	-7.041409e+04	1.758796e+11	3.136940e+02	1.421462e+09	1.333756e+09	2.580486e-01	2.421266e-01	1.421456e+09	1.333750e+09
1.701883e-03	5.473947e-02	2.303846e+02	-6.556853e+04	1.593797e+11	2.986173e+02	1.262950e+09	1.183208e+09	2.582429e-01	2.419376e-01	1.262944e+09	1.183203e+09
1.790937e-03	5.612521e-02	2.249473e+02	-6.105610e+04	1.444283e+11	2.842658e+02	1.121899e+09	1.049410e+09	2.584424e-01	2.417438e-01	1.121893e+09	1.049405e+09
1.884488e-03	5.754603e-02	2.196286e+02	-5.685376e+04	1.308800e+11	2.706046e+02	9.964051e+08	9.305213e+08	2.586471e-01	2.415450e-01	9.964000e+08	9.305165e+08
1.982760e-03	5.900281e-02	2.144261e+02	-5.293956e+04	1.186035e+11	2.576008e+02	8.847719e+08	8.249017e+08	2.588573e-01	2.413411e-01	8.847671e+08	8.248973e+08
2.085993e-03	6.049647e-02	2.093374e+02	-4.929312e+04	1.074793e+11	2.452229e+02	7.854866e+08	7.310909e+08	2.590730e-01	2.411319e-01	7.854822e+08	7.310868e+08
2.194437e-03	6.202795e-02	2.043603e+02	-4.589609e+04	9.739951e+10	2.334409e+02	6.972012e+08	6.477883e+08	2.592944e-01	2.409174e-01	6.971971e+08	6.477845e+08
2.308353e-03	6.359820e-02	1.994926e+02	-4.273122e+04	8.826599e+10	2.222262e+02	6.187131e+08	5.738346e+08	2.595217e-01	2.406973e-01	6.187092e+08	5.738311e+08
2.428017e-03	6.520819e-02	1.947321e+02	-3.978214e+04	7.998997e+10	2.115516e+02	5.489499e+08	5.081971e+08	2.597551e-01	2.404715e-01	5.489463e+08	5.081938e+08
2.553718e-03	6.685894e-02	1.900768e+02	-3.703401e+04	7.249096e+10	2.013912e+02	4.869560e+08	4.499562e+08	2.599948e-01	2.402399e-01	4.869526e+08	4.499531e+08
2.685760e-03	6.855149e-02	1.855249e+02	-3.447317e+04	6.569604e+10	1.917203e+02	4.318789e+08	3.982924e+08	2.602408e-01	2.400023e-01	4.318758e+08	3.982895e+08
2.824461e-03	7.028688e-02	1.810745e+02	-3.208671e+04	5.953909e+10	1.825154e+02	3.829586e+08	3.524757e+08	2.604934e-01	2.397585e-01	3.829557e+08	3.524730e+08
2.970156e-03	7.206620e-02	1.767236e+02	-2.986274e+04	5.396019e+10	1.737542e+02	3.395173e+08	3.118558e+08	2.607527e-01	2.395085e-01	3.395146e+08	3.118533e+08
3.123196e-03	7.389056e-02	1.724706e+02	-2.779029e+04	4.890505e+10	1.654152e+02	3.009507e+08	2.758536e+08	2.610190e-01	2.392519e-01	3.009482e+08	2.758514e+08
3.283949e-03	7.576111e-02	1.683137e+02	-2.585903e+04	4.432445e+10	1.574781e+02	2.667203e+08	2.439534e+08	2.612924e-01	2.389888e-01	2.667180e+08	2.439512e+08
3.452803e-03	7.767901e-02	1.642511e+02	-2.405947e+04	4.017383e+10	1.499236e+02	2.363458e+08	2.156957e+08	2.615731e-01	2.387189e-01	2.363436e+08	2.156938e+08
3.630163e-03	7.964546e-02	1.602813e+02	-2.238277e+04	3.641277e+10	1.427333e+02	2.093993e+08	1.906720e+08	2.618613e-01	2.384421e-01	2.093973e+08	1.906701e+08
3.816454e-03	8.166170e-02	1.564026e+02	-2.082063e+04	3.300465e+10	1.358896e+02	1.854995e+08	1.685181e+08	2.621571e-01	2.381582e-01	1.854976e+08	1.685164e+08
4.012126e-03	8.372897e-02	1.526134e+02	-1.936540e+04	2.991631e+10	1.293756e+02	1.643068e+08	1.489105e+08	2.624608e-01	2.378671e-01	1.643050e+08	1.489089e+08
4.217646e-03	8.584858e-02	1.489120e+02	-1.800977e+04	2.711768e+10	1.231756e+02	1.455186e+08	1.315611e+08	2.627726e-01	2.375686e-01	1.455170e+08	1.315596e+08
4.433509e-03	8.802185e-02	1.452969e+02	-1.674731e+04	2.458155e+10	1.172744e+02	1.288658e+08	1.162139e+08	2.630926e-01	2.372625e-01	1.288643e+08	1.162125e+08
4.660230e-03	9.025013e-02	1.417665e+02	-1.557158e+04	2.228323e+10	1.116574e+02	1.141085e+08	1.026412e+08	2.634210e-01	2.369486e-01	1.141071e+08	1.026399e+08
4.898353e-03	9.253483e-02	1.383192e+02	-1.447679e+04	2.020037e+10	1.063110e+02	1.010334e+08	9.064075e+07	2.637581e-01	2.366269e-01	1.010321e+08	9.063958e+07
5.148448e-03	9.487736e-02	1.349535e+02	-1.345768e+04	1.831274e+10	1.012221e+02	8.945099e+07	8.003292e+07	2.641040e-01	2.362971e-01	8.944978e+07	8.003183e+07
5.411113e-03	9.727919e-02	1.316679e+02	-1.250894e+04	1.660198e+10	9.637813e+01	7.919236e+07	7.065807e+07	2.644590e-01	2.359591e-01	7.919122e+07	7.065705e+07
5.686975e-03	9.974182e-02	1.284607e+02	-1.162602e+04	1.505149e+10	9.176735e+01	7.010766e+07	6.237466e+07	2.648232e-01	2.356127e-01	7.010661e+07	6.237372e+07
5.976693e-03	1.022668e-01	1.253304e+02	-1.080444e+04	1.364620e+10	8.737844e+01	6.206363e+07	5.505702e+07	2.651969e-01	2.352578e-01	6.206265e+07	5.505614e+07
6.280959e-03	1.048557e-01	1.222756e+02	-1.004007e+04	1.237247e+10	8.320064e+01	5.494190e+07	4.859368e+07	2.655803e-01	2.348941e-01	5.494098e+07	4.859287e+07
6.600534e-03	1.075101e-01	1.192946e+02	-9.327911e+03	1.121547e+10	7.921496e+01	4.863737e+07	4.288585e+07	2.659737e-01	2.345214e-01	4.863651e+07	4.288509e+07
6.936139e-03	1.102318e-01	1.163860e+02	-8.666810e+03	1.016965e+10	7.543128e+01	4.305683e+07	3.784602e+07	2.663771e-01	2.341397e-01	4.305603e+07	3.784532e+07
7.288575e-03	1.130223e-01	1.135482e+02	-8.051984e+03	9.221534e+09	7.182904e+01	3.811748e+07	3.339660e+07	2.667910e-01	2.337487e-01	3.811673e+07	3.339595e+07
7.658683e-03	1.158835e-01	1.108715e+02	-7.232267e+03	8.361921e+09	6.839928e+01	3.374605e+07	2.946891e+07	2.672156e-01	2.333481e-01	3.374520e+07	2.946843e+07
8.047134e-03	1.188171e-01	1.081134e+02	-7.100259e+03	7.590840e+09	6.516935e+01	2.984589e+07	2.611338e+07	2.676418e-01	2.329467e-01	3.000054e+07	2.597359e+07
8.455343e-03	1.218249e-01	1.055687e+02	-6.233727e+03	6.873809e+09	6.201507e+01	2.639298e+07	2.298075e+07	2.680943e-01	2.325209e-01	2.649525e+07	2.288822e+07
8.883750e-03	1.249090e-01	1.029912e+02	-6.016481e+03	6.240950e+09	5.909134e+01	2.335039e+07	2.036607e+07	2.685411e-01	2.321014e-01	2.356124e+07	2.017708e+07
9.333723e-03	1.280710e-01	1.005187e+02	-5.494740e+03	5.657056e+09	5.625922e+01	2.065985e+07	1.796475e+07	2.690093e-01	2.316623e-01	2.085909e+07	1.778666e+07
9.806155e-03	1.313132e-01	9.808384e+01	-5.153901e+03	5.131957e+09	5.358460e+01	1.828263e+07	1.587994e+07	2.694841e-01	2.312177e-01	1.850621e+07	1.568084e+07
1.030227e-02	1.346374e-01	9.572005e+01	-4.764657e+03	4.653775e+09	5.102713e+01	1.618088e+07	1.402039e+07	2.699736e-01	2.307602e-01	1.640127e+07	1.382474e+07
1.082318e-02	1.380457e-01	9.340861e+01	-4.437304e+03	4.221201e+09	4.859779e+01	1.432286e+07	1.238601e+07	2.704737e-01	2.302934e-01	1.454554e+07	1.218899e+07
1.137015e-02	1.415404e-01	9.115621e+01	-4.117915e+03	3.828509e+09	4.628213e+01	1.267991e+07	1.093881e+07	2.709870e-01	2.298152e-01	1.289717e+07	1.074721e+07
1.194447e-02	1.451235e-01	8.895840e+01	-3.826793e+03	3.472574e+09	4.407824e+01	1.122695e+07	9.661950e+06	2.715128e-01	2.293263e-01	1.143813e+07	9.476325e+06
1.254751e-02	1.487973e-01	8.681525e+01	-3.553914e+03	3.149725e+09	4.197926e+01	9.941864e+06	8.533800e+06	2.720517e-01	2.288259e-01	1.014476e+07	8.356043e+06
1.318070e-02	1.525641e-01	8.472526e+01	-3.300773e+03	2.856955e+09	3.998068e+01	8.805084e+06	7.537704e+06	2.726040e-01	2.283141e-01	8.998933e+06	7.368457e+06
1.384553e-02	1.564263e-01	8.268729e+01	-3.065390e+03	2.591434e+09	3.807751e+01	7.799382e+06	6.658110e+06	2.731702e-01	2.277905e-01	7.983616e+06	6.497813e+06
1.454358e-02	1.603863e-01	8.070011e+01	-2.846736e+03	2.350621e+09	3.626517e+01	6.909543e+06	5.881442e+06	2.737504e-01	2.272548e-01	7.083931e+06	5.730251e+06
1.527652e-02	1.644465e-01	7.876269e+01	-2.643360e+03	2.132205e+09	3.453925e+01	6.122106e+06	5.195647e+06	2.743450e-01	2.267070e-01	6.286630e+06	5.053524e+06
1.604608e-02	1.686094e-01	7.687369e+01	-2.454657e+03	1.934105e+09	3.289565e+01	5.425216e+06	4.590140e+06	2.749543e-01	2.261468e-01	5.580056e+06	4.456876e+06
1.685409e-02	1.728778e-01	7.503212e+01	-2.279150e+03	1.754418e+09	3.133033e+01	4.808370e+06	4.055463e+06	2.755787e-01	2.255739e-01	4.953764e+06	3.930807e+06
1.770246e-02	1.772542e-01	7.323673e+01	-2.116272e+03	1.591434e+09	2.983959e+01	4.262320e+06	3.583361e+06	2.762186e-01	2.249880e-01	4.398617e+06	3.466956e+06
1.859322e-02	1.817415e-01	7.148645e+01	-1.964938e+03	1.443593e+09	2.841979e+01	3.778869e+06	3.166470e+06	2.768743e-01	2.243889e-01	3.906441e+06	3.057950e+06
1.952847e-02	1.863423e-01	6.978018e+01	-1.824385e+03	1.309485e+09	2.706754e+01	3.350788e+06	2.798326e+06	2.775463e-01	2.237764e-01	3.470045e+06	2.697294e+06
2.051046e-02	1.910595e-01	6.811677e+01	-1.693929e+03	1.187833e+09	2.577961e+01	2.971682e+06	2.473213e+06	2.782348e-01	2.231503e-01	3.083050e+06	2.379260e+06
2.154150e-02	1.958962e-01	6.649519e+01	-1.572750e+03	1.077477e+09	2.455288e+01	2.635908e+06	2.186073e+06	2.789404e-01	2.225101e-01	2.739798e+06	2.098800e+06
2.262406e-02	2.008554e-01	6.491434e+01	-1.460285e+03	9.773643e+08	2.338443e+01	2.338463e+06	1.932459e+06	2.796635e-01	2.218556e-01	2.435300e+06	1.851468e+06
2.376073e-02	2.059400e-01	6.337328e+01	-1.355778e+03	8.865433e+08	2.227145e+01	2.074941e+06	1.708430e+06	2.804046e-01	2.211865e-01	2.165123e+06	1.633345e+06
2.495420e-02	2.111534e-01	6.187084e+01	-1.258880e+03	8.041522e+08	2.121132e+01	1.841433e+06	1.510531e+06	2.811641e-01	2.205025e-01	1.925368e+06	1.440967e+06
2.620733e-02	2.164988e-01	6.040605e+01	-1.168905e+03	7.294047e+08	2.020146e+01	1.634495e+06	1.335682e+06	2.819425e-01	2.198033e-01	1.712548e+06	1.271296e+06
2.752312e-02	2.219795e-01	5.897803e+01	-1.085291e+03	6.615909e+08	1.923948e+01	1.451067e+06	1.181184e+06	2.827403e-01	2.190886e-01	1.523600e+06	1.121643e+06
2.890487e-02	2.275990e-01	5.760255e+01	-9.954635e+02	5.999346e+08	1.832105e+01	1.288453e+06	1.044665e+06	2.835580e-01	2.183580e-01	1.355825e+06	9.896378e+05
3.035534e-02	2.333606e-01	5.623576e+01	-9.423126e+02	5.444353e+08	1.745306e+01	1.144390e+06	9.254173e+05	2.843896e-01	2.176173e-01	1.208544e+06	8.732875e+05
