###	Mass = 580. MeV; tau = 1.0114700646862866*sec
###	 Gamma*t      a(t)        rho_N/rho_SM
0.02	0.1948130096196769	1.400371503261051
0.04499999999999999	0.3100140974616548	2.079168555945698
0.07	0.4014901947489071	2.479665746630583
0.095	0.4810782274160084	2.714899751045152
0.12	0.5529493953377071	2.838941525915271
0.145	0.6194869843512911	2.887235691618041
0.17	0.6818224626083901	2.883209441259179
0.195	0.7406402078384311	2.843727142382103
0.22	0.7966257943516614	2.780996841713359
0.245	0.85025385099798	2.703366719918831
0.27	0.9018551078251801	2.616730138199509
0.295	0.9516702879902535	2.525262747092941
0.32	0.9998820012841237	2.431917880246006
0.345	1.046634415537787	2.338770412810571
0.37	1.09204576975542	2.247260308467737
0.395	1.136248167796471	2.15839459658115
0.42	1.179375267220701	2.072689634991944
0.445	1.221495263195621	1.990318738901247
0.47	1.262668836811275	1.911359789230919
0.495	1.302951394024686	1.835823870172165
0.52	1.342394125716747	1.763674748209297
0.545	1.38104481480524	1.69484310163095
0.57	1.418948456083826	1.629236959456476
0.595	1.456147735290328	1.566749379235826
0.62	1.492683400861067	1.507264098490701
0.645	1.528594552791124	1.450659689579158
0.67	1.563918866661291	1.396812603427819
0.695	1.598692766353271	1.345599384821051
0.72	1.632951555691991	1.29689826805725
0.745	1.666726047701502	1.250590066730576
0.77	1.700027567744205	1.206536268439425
0.795	1.732871378708435	1.164581000109316
0.82	1.76527321632201	1.124582452788768
0.845	1.797247982106176	1.086412478093942
0.87	1.828809818136454	1.04995484384216
0.895	1.859972172686181	1.015103762438106
0.92	1.890747858073148	0.9817626424576483
0.945	1.921149101804917	0.949843024014481
0.97	1.951187591937206	0.9192636663444752
0.9950000000000001	1.980874517412597	0.8899497621648623
1.02	2.010220604026689	0.8618322581742314
1.045	2.039236146570166	0.8348472648618771
1.07	2.067931037613655	0.8089355418210958
1.095	2.096314793334633	0.7840420471836092
1.12	2.124396576729099	0.7601155417429501
1.145	2.15218521850336	0.7371082399138456
1.17	2.179689235901423	0.7149755009597846
1.195	2.206916849689717	0.6936755549719901
1.22	2.233875999492215	0.6731692589466621
1.245	2.260574357644622	0.6534198790202502
1.27	2.287019341715373	0.6343928955134924
1.295	2.313218125823232	0.6160558279269401
1.32	2.339177650865836	0.5983780774418676
1.345	2.364904633760135	0.5813307848254354
1.37	2.390405575784093	0.564886701929454
1.395	2.415686770098906	0.5490200752175726
1.42	2.440754308522218	0.5337065399638416
1.445	2.465614087615068	0.5189230239426589
1.47	2.490271814138565	0.5046476595811988
1.495	2.514733009930321	0.4908597036747612
1.52	2.539003016245394	0.4775394638765007
1.545	2.563084631870244	0.4646627767508309
1.57	2.586979505538933	0.4522053273059912
1.595	2.610691244736207	0.4401492755914481
1.62	2.634223346228721	0.4284778051096831
1.645	2.657579201951134	0.4171750450670491
1.67	2.680762104995837	0.4062260010459999
1.695	2.703775255172509	0.395616491936828
1.72	2.726621764176357	0.3853330924654688
1.745	2.749304660399829	0.375363080733914
1.77	2.771826893418928	0.3656943902590007
1.795	2.794191338182074	0.3563155660554286
1.82	2.816400798926648	0.3472157243611018
1.845	2.83845801284585	0.3383845156484365
1.87	2.860365653526299	0.3298120906050596
1.895	2.882126334174829	0.3214890688021458
1.92	2.903742610651195	0.3134065097991868
1.945	2.925216984321845	0.3055558864608302
1.97	2.9465519047485	0.2979290602850634
1.995	2.967749772224084	0.2905182585628706
2.02	2.988812940167359	0.2833160532079155
2.044999999999999	3.0097437173867	0.2763153411111249
2.07	3.030544370222461	0.2695093258895082
2.095	3.05121712457664	0.262891500911406
2.12	3.07176416783776	0.256455633491794
2.145	3.092187650708274	0.25019575016146
2.169999999999999	3.112489688941151	0.2441061229229667
2.195	3.132672364991804	0.2381812564144431
2.22	3.15273772959099	0.2324158759095259
2.245	3.172687803243891	0.2268049160882928
2.27	3.192524577660166	0.2213435105198947
2.294999999999999	3.212250017119392	0.2160269818028475
2.32	3.231866059775974	0.2108508323136924
2.345	3.25137461890731	0.2058107355190001
2.37	3.27077758410868	0.2009025278095487
2.395	3.290076822438114	0.1961222008189904
2.419999999999999	3.309274179514212	0.1914658941924698
2.445	3.328371480569706	0.1869298887735121
2.47	3.3473720704824	0.1825102094419246
2.495	3.366279455950226	0.1782028842018229
2.52	3.385094492007136	0.1740046756868632
2.544999999999999	3.403818001962846	0.1699124625730727
2.57	3.422450800957853	0.1659232293387727
2.595	3.440993696486186	0.162034061866317
2.62	3.459447488898619	0.1582421432690453
2.645	3.47781297188739	0.1545447499295875
2.669999999999999	3.4960909329534	0.1509392477366538
2.695	3.514282153856799	0.1474230885083504
2.72	3.53238741105181	0.1439938065909039
2.745	3.550407476106605	0.1406490156224472
2.77	3.568343116108958	0.1373864054522305
2.795	3.586195094058387	0.1342037392062791
2.82	3.60396416924545	0.1310988504911224
2.845	3.621651097618788	0.1280696407277774
2.87	3.639256632140518	0.1251140766086892
2.895	3.656781523130499	0.1222301876708066
2.92	3.674226518599986	0.1194160639784119
2.945	3.691592364575151	0.1166698539097383
2.97	3.708879805410908	0.1139897620417827
2.995	3.726089584095476	0.1113740471280771
3.02	3.743222442546064	0.1088210201645091
3.045	3.760279121896045	0.1063290425385828
3.07	3.777260362773971	0.103896524257798
3.095	3.794166905574761	0.1015219222530841
3.12	3.810999490723346	0.09920373875347125
3.145	3.827758858931067	0.09694051972841133
3.17	3.844445751445109	0.09473085339436827
3.195	3.861060910291185	0.09257336878250023
3.22	3.877605078509743	0.09046673436443697
3.245	3.894079000385886	0.08840965673333098
3.27	3.910483421673216	0.08640087933751959
3.295	3.926819089811808	0.08443918126428733
3.32	3.943086754140465	0.08252337607135827
3.345	3.959287166103442	0.08065231066387872
3.37	3.975421079451778	0.07882486421477606
3.395	3.991489250439385	0.07703994712649292
3.42	4.007492438014019	0.07529650003220583
3.445	4.023431404003265	0.07359349283473823
3.47	4.039306913295632	0.07192992378147279
3.495	4.055119734016881	0.07030481857365918
3.52	4.070870637701652	0.06871722950859493
3.545	4.086560399460508	0.06716623465323859
3.57	4.102189798142442	0.06565093704788667
3.595	4.117759616492944	0.06417046393861718
3.62	4.133270641307657	0.06272396603726775
3.645	4.148723663581725	0.06131061680777811
3.67	4.16411947865483	0.05992961177778564
3.695	4.179458886351992	0.05858016787441732
3.72	4.194742691120162	0.05726152278327325
3.745	4.209971702160638	0.05597293432964636
3.77	4.225146733557312	0.0547136798810686
3.795	4.2402686044008	0.05348305577031773
3.82	4.255338138908435	0.05228037673806028
3.845	4.270356166540159	0.05110497539434473
3.87	4.285323522110289	0.04995620169819638
3.895	4.300241045895189	0.04883342245459988
3.92	4.315109583736824	0.04773602082818816
3.945	4.329929987142179	0.04666339587298862
3.97	4.344703113378555	0.04561496207760557
3.995	4.359429825564703	0.04459014892524758
4.02	4.374110992757787	0.04358840046803369
4.044999999999999	4.388747490036142	0.0426091749150383
4.07	4.40334019857782	0.04165194423355788
4.095	4.417890005734863	0.04071619376310638
4.12	4.432397805103299	0.03980142184166634
4.145	4.446864364854778	0.03890713782300434
4.169999999999999	4.461289165240336	0.03803285712992646
4.195	4.475672158191039	0.03717813005110808
4.22	4.490013537636781	0.03634252145608709
4.245	4.504313496939496	0.03552560580304232
4.27	4.518572228929285	0.03472696693240296
4.294999999999999	4.53278992593982	0.03394619786464232
4.32	4.546966779843058	0.03318290060218433
4.345	4.56110298208325	0.032436685935353
4.37	4.575198723710306	0.0317071732522942
4.395	4.589254195412492	0.03099399035280035
4.419999999999999	4.603269587548513	0.03029677326596942
4.445	4.617245090178964	0.02961516607162893
4.47	4.631180893097194	0.02894882072545809
4.495	4.645077185859587	0.0282973968877402
4.52	4.658934157815259	0.02766056175567922
4.544999999999999	4.672751998135224	0.02703798989921479
4.57	4.68653089584099	0.02642936310027034
4.595	4.700271039832655	0.0258343701953706
4.62	4.713972618916464	0.02525270692156457
4.645	4.727635821831882	0.02468407576559145
4.669999999999999	4.74126083727816	0.024128185816228
4.695	4.754847853940428	0.02358475261975572
4.72	4.768397060515318	0.02305349803848824
4.745	4.781908645736128	0.02253415011229937
4.77	4.795382798397541	0.02202644292309306
4.794999999999999	4.808819707379892	0.02153011646215838
4.82	4.822219561673022	0.02104491650035187
4.845	4.835582550399702	0.02057059446105218
4.87	4.848908862838641	0.0201069072958315
4.895	4.862198688447105	0.01965361736278962
4.919999999999999	4.875452216883125	0.01921049230749791
4.945	4.888669638027325	0.01877730494649988
4.97	4.901851142004367	0.01835383315331768
4.995	4.914996919204022	0.01793985974691334
5.02	4.928107160301883	0.01753517238255486
5.044999999999999	4.9411820562797	0.01713956344503868
5.07	4.954221798445383	0.01675282994421969
5.095	4.967226578452633	0.01637477341280217
5.12	4.980196588320259	0.0160051998063447
5.145	4.993132020451134	0.01564391940543359
5.169999999999999	5.006033067650832	0.01529074671998012
5.195	5.018899923145938	0.01494550039559727
5.22	5.031732780602037	0.01460800312201325
5.245	5.044531834141384	0.01427808154347877
5.27	5.05729727836026	0.01395556617112692
5.294999999999999	5.07002930834603	0.01364029129724475
5.32	5.082728119693886	0.01333209491141611
5.345	5.095393908523297	0.01303081861849693
5.37	5.108026871494157	0.012736307558384
5.395	5.120627205822651	0.01244841032753945
5.419999999999999	5.133195109296816	0.01216697890223407
5.445	5.145730780291831	0.01189186856347268
5.47	5.158234417785011	0.01162293782356619
5.495	5.170706221370527	0.01136004835431525
5.52	5.183146391273854	0.01110306491677098
5.544999999999999	5.195555128365923	0.01085185529253958
5.57	5.207932634177031	0.01060629021659736
5.595	5.220279110910446	0.0103662433115843
5.62	5.232594761455769	0.01013159102354413
5.645	5.244879789402017	0.009902212559080142
5.669999999999999	5.257134399050446	0.009677989823896232
5.695	5.269358795427105	0.009458807362693302
5.72	5.281553184295136	0.009244552300391964
5.745	5.293717772166798	0.009035114284652864
5.77	5.305852766315257	0.008830385429666548
5.794999999999999	5.317958374786091	0.008630260261185619
5.82	5.330034806408557	0.008434635662772046
5.845	5.342082270806593	0.008243410823233533
5.87	5.354100978409564	0.008056487185222966
5.895	5.366091140462761	0.007873768394975791
5.919999999999999	5.378052969037636	0.007695160253160597
5.945	5.389986677041791	0.007520570666818591
5.97	5.401892478228715	0.007349909602368381
5.995	5.413770587207255	0.007183089039652704
6.02	5.425621219450857	0.007020022927004488
6.044999999999999	5.437444591306531	0.006860627137309952
6.07	5.44924092000358	0.006704819425046881
6.095	5.461010423662074	0.006552519384276898
6.12	5.472753321301061	0.006403648407570686
6.145	5.484469832846544	0.006258129645845827
6.169999999999999	5.496160179139183	0.00611588796909726
6.195	5.507824581941766	0.005976849928000661
6.22	5.519463263946409	0.005840943716369731
6.245	5.531076448781513	0.005708099134448529
6.27	5.542664361018458	0.005578247553020492
6.294999999999999	5.554227226178052	0.005451321878316295
6.32	5.565765270736708	0.00532725651770276
6.345	5.577278722132387	0.005205987346135857
6.37	5.588767808770259	0.005087451673360746
6.395	5.600232760028126	0.004971588211842489
6.419999999999999	5.611673806261573	0.004858337045411347
6.445	5.623091178808865	0.00474763959860677
6.47	5.634485109995576	0.004639438606704775
6.495	5.645855833138971	0.004533678086413518
6.52	5.657203582552102	0.004430303307222326
6.544999999999999	5.668528593547658	0.004329260763389771
6.57	5.679831102441543	0.004230498146556538
6.595	5.691111346556184	0.004133964318969412
6.62	5.702369564223575	0.004039609287302675
6.645	5.71360599478805	0.003947384177063817
6.669999999999999	5.724820878608783	0.003857241207570548
6.695	5.736014457062019	0.003769133667486418
6.72	5.74718697254303	0.003683015890902726
6.745	5.758338668467791	0.003598843233954524
6.77	5.769469789274394	0.003516572051958883
6.795	5.780580580424159	0.003436159677063859
6.82	5.79167128840249	0.003357564396396747
6.845	5.802742160719442	0.003280745430700578
6.87	5.813793445909991	0.003205662913447996
6.895	5.824825393534039	0.003132277870421875
6.92	5.835838254176129	0.003060552199752328
6.945	5.84683227944486	0.00299044865239994
6.97	5.857807721972027	0.002921930813075259
6.995	5.868764835411463	0.002854963081584919
7.02	5.879703874437592	0.002789510654594784
7.045	5.89062509474369	0.002725539507800933
7.07	5.901528753039833	0.002663016378499305
7.095	5.912415107050583	0.002601908748545183
7.12	5.923284415512333	0.002542184827693812
7.145	5.934136938170388	0.002483813537313629
7.17	5.944972863064466	0.002426764599205819
7.195	5.955790345449648	0.00237101127432593
7.22	5.9665885517963	0.002316525841620419
7.245	5.977367574816946	0.002263279856039562
7.27	5.988127506509756	0.002211245498702606
7.295	5.998868438167961	0.002160395563497951
7.32	6.009590460389116	0.002110703443957236
7.345	6.020293663084221	0.002062143120398213
7.37	6.0309781354867	0.002014689147331354
7.395	6.041643966161226	0.001968316641125139
7.42	6.05229124301243	0.001923001267925196
7.445	6.062920053293461	0.001878719231822385
7.47	6.073530483614412	0.001835447263265104
7.495	6.084122619950622	0.001793162607711154
7.52	6.094696547650851	0.001751843014514511
7.545	6.105252351445329	0.00171146672604253
7.57	6.115790115453668	0.001672012467019097
7.595	6.126309923192682	0.00163345943408935
7.62	6.13681185758406	0.001595787285601687
7.645	6.147296000961939	0.001558976131602807
7.67	6.15776243508036	0.001523006524041634
7.695	6.168211241120603	0.001487859447178026
7.72	6.178642499698433	0.001453516308192256
7.745	6.189056290871209	0.001419958927991329
7.77	6.199452694144911	0.001387169532208212
7.795	6.209831788481052	0.001355130742390214
7.82	6.220193652303487	0.001323825567372736
7.845	6.230538363505129	0.001293237394834716
7.87	6.240865999454555	0.001263349983032168
7.895	6.251176637002526	0.001234147452706245
7.92	6.261470352488403	0.001205614279162353
7.945	6.271747221746478	0.00117773528451688
7.97	6.282007320112202	0.001150495630108185
7.995	6.292250722428334	0.001123880809068547
8.019999999999999	6.302477503050992	0.001097876639053813
8.044999999999999	6.312687735855628	0.001072469255127593
8.07	6.322881494242899	0.00104764510279685
8.095	6.333058851144477	0.001023390931195835
8.120000000000001	6.343219879028752	0.0009996937864153424
8.144999999999999	6.353364649906475	0.0009765410049743518
8.169999999999999	6.363493235336311	0.0009539202074311302
8.195	6.373605706430306	0.0009318192921309816
8.22	6.383702133859293	0.0009102264290878196
8.245000000000001	6.393782587858212	0.0008891300539968452
8.269999999999999	6.403847138231355	0.0008685188623756352
8.294999999999999	6.413895854357537	0.0008483818038310007
8.32	6.423928805195209	0.0008287080764490435
8.345	6.433946059287475	0.0008094871213058514
8.370000000000001	6.443947684767057	0.0007907086170963602
8.395000000000001	6.453933749361194	0.0007723624748789343
8.419999999999999	6.463904320396451	0.0007544388329332758
8.445	6.4738594648035	0.000736928051729303
8.47	6.483799249121785	0.0007198207090047168
8.495000000000001	6.493723739504172	0.000703107594948972
8.520000000000001	6.503633001721508	0.0006867797074914537
8.544999999999999	6.513527101167118	0.0006708282476916901
8.57	6.523406102861255	0.0006552446152294554
8.595	6.533270071455477	0.000640020403992705
8.620000000000001	6.543119071236972	0.0006251473977612634
8.645000000000001	6.552953166132822	0.0006106175659842833
8.669999999999999	6.562772419714208	0.0005964230596495008
8.695	6.572576895200563	0.0005825562072423538
8.72	6.582366655463664	0.0005690095107930895
8.745000000000001	6.592141763031676	0.0005557756420099919
8.770000000000001	6.60190228009314	0.0005428474384969242
8.794999999999999	6.6116482685009	0.0005302179000534073
8.82	6.62137978977599	0.0005178801850554814
8.845	6.631096905111467	0.0005058276069156618
8.870000000000001	6.640799675376182	0.0004940536306202913
8.895000000000001	6.650488161118523	0.0004825518693426656
8.919999999999999	6.660162422570081	0.0004713160811303168
8.945	6.669822519649303	0.0004603401656648793
8.97	6.679468511965057	0.0004496181610930046
8.995000000000001	6.689100458820187	0.0004391442409267964
9.020000000000001	6.698718419215002	0.0004289127110122989
9.044999999999999	6.70832245185072	0.0004189180065645813
9.07	6.717912615132876	0.0004091546892679934
9.095	6.727488967174683	0.0003996174444402116
9.120000000000001	6.737051565800344	0.000390301078258694
9.145000000000001	6.746600468548329	0.0003812005150482224
9.169999999999999	6.756135732674607	0.0003723107946282154
9.195	6.765657415155837	0.0003636270697185295
9.22	6.775165572692517	0.0003551446034025003
9.245000000000001	6.784660261712096	0.0003468587666459828
9.270000000000001	6.794141538372042	0.000338765035871194
9.294999999999999	6.803609458562875	0.0003308589905841761
9.32	6.813064077911165	0.0003231363110547216
9.345	6.822505451782481	0.0003155927760476374
9.370000000000001	6.831933635284312	0.000308224260604229
9.395000000000001	6.84134868326895	0.000301026733872928
9.419999999999999	6.850750650336336	0.0002939962569879967
9.445	6.86013959083687	0.0002871289809952695
9.47	6.869515558874185	0.0002804211448239174
9.495000000000001	6.87887860830789	0.0002738690733032301
9.520000000000001	6.888228792756272	0.0002674691752234451
9.544999999999999	6.89756616559898	0.0002612179414396672
9.57	6.906890779979651	0.0002551119430179383
9.595	6.916202688808524	0.0002491478294225488
9.620000000000001	6.925501944765022	0.0002433223267436848
9.645000000000001	6.934788600300279	0.000237632235964538
9.669999999999999	6.944062707639675	0.0002320744312670191
9.695	6.953324318785293	0.0002266458583752276
9.72	6.962573485518389	0.0002213435329358627
9.745000000000001	6.971810259401808	0.0002161645389347607
9.770000000000001	6.981034691782368	0.0002111060271487728
9.794999999999999	6.990246833793234	0.0002061652136322135
9.82	6.999446736356247	0.0002013393782371156
9.845	7.008634450184229	0.0001966258631665619
9.870000000000001	7.01781002578326	0.0001920220715603595
9.895000000000001	7.026973513454931	0.0001875254661123528
9.919999999999999	7.036124963298569	0.0001831335677186806
9.945	7.045264425213424	0.0001788439541562956
9.97	7.054391948900851	0.000174654258791086
9.995000000000001	7.063507583866445	0.0001705621693149438
10.02	7.072611379422165	0.0001665654265111462
10.045	7.081703384688418	0.0001626618230474262
10.07	7.090783648596142	0.0001588492022961215
10.095	7.099852219888834	0.0001551254571808091
10.12	7.108909147124574	0.0001514885290488361
10.145	7.117954478678026	0.0001479364065691794
10.17	7.126988262742394	0.0001444671246550742
10.195	7.136010547331394	0.0001410787634108633
10.22	7.145021380281149	0.0001377694471025352
10.245	7.154020809252116	0.0001345373431514221
10.27	7.163008881730951	0.0001313806611505506
10.295	7.171985645032369	0.0001282976519031404
10.32	7.180951146300985	0.0001252866064827611
10.345	7.18990543251312	0.0001223458553146701
10.37	7.198848550478596	0.0001194737672778567
10.395	7.207780546842511	0.0001166687488273381
10.42	7.216701468086986	0.0001139292431362553
10.445	7.225611360532892	0.0001112537292573289
10.47	7.234510270341569	0.0001086407213032475
10.495	7.243398243516504	0.0001060887676455643
10.52	7.252275325905012	0.0001035964501316931
10.545	7.261141563199879	0.0001011623833195994
10.57	7.269997000940996	0.00009878521372979292
