###	Mass = 100. MeV; tau = 0.5*sec
###	 Gamma*t      a(t)        rho_N/rho_SM
0.02	0.1193240243836716	0.1516013396332244
0.04499999999999999	0.1809823655116452	0.2221190625593097
0.07	0.2275196186054976	0.2702891759338612
0.095	0.2667562017953553	0.3066521728320576
0.12	0.3014574533718839	0.3351509425457581
0.145	0.3329487687261726	0.3578212047117793
0.17	0.3620274630127289	0.3759436410001181
0.195	0.3892205984749115	0.3903990417875955
0.22	0.4148825041993731	0.4018225762888597
0.245	0.4392625031135709	0.410696899406466
0.27	0.4625419441149469	0.4174033217592942
0.295	0.484855926926441	0.4222520237916623
0.32	0.5063103550499762	0.4255028259882686
0.345	0.527004505846549	0.4273778468632938
0.37	0.5470236035745739	0.4280639073172285
0.395	0.5664376124541601	0.4277199868780833
0.42	0.5853046415082771	0.4264826903350201
0.445	0.603673432312738	0.42447032427562
0.47	0.6215852140760362	0.4217860088688834
0.495	0.6390751125147775	0.418520100801471
0.52	0.6561732372457852	0.4147521134011944
0.545	0.6729055331339904	0.4105522623989146
0.57	0.6892944553796919	0.4059827279186611
0.595	0.7053595109774268	0.4010986978131875
0.62	0.7211176974706581	0.3959492399690582
0.645	0.7365838617824301	0.3905780389679411
0.67	0.7517709961398075	0.385024023785271
0.695	0.7666905232481692	0.379321928747315
0.72	0.7813594846782598	0.3735055254127032
0.745	0.7957941881357203	0.3676018451888841
0.77	0.8100057328024862	0.3616321212406601
0.795	0.8240043221076958	0.35561523854725
0.82	0.8377993644490199	0.3495679961491026
0.845	0.8513995598290689	0.3435053358763218
0.87	0.8648129747280939	0.3374405425912408
0.895	0.8780471070962891	0.3313854200983731
0.92	0.8911089430035905	0.3253504461708685
0.945	0.9040050062104424	0.3193449095747125
0.97	0.9167414017034843	0.3133770315107345
0.9950000000000001	0.929323854063376	0.3074540735175849
1.02	0.9417577413888358	0.3015824335689487
1.045	0.9540481253843614	0.2957677318420183
1.07	0.9661997781235941	0.2900148874212424
1.095	0.9782172059216692	0.2843281870233954
1.12	0.9901046706848487	0.2787113466806202
1.145	1.001866209051678	0.2731675671921178
1.17	1.01350564959479	0.2676995840484738
1.195	1.025026628314632	0.2623097124419051
1.22	1.036432602624587	0.2569998878982855
1.245	1.047726864000031	0.2517717030004967
1.27	1.058912549441075	0.2466264406156312
1.295	1.069992651879327	0.2415651039894193
1.32	1.080970029642442	0.2365884440287164
1.345	1.091847415076026	0.2316969840559835
1.37	1.102627422410263	0.2268910422875813
1.395	1.113312554948143	0.2221707522596848
1.42	1.123905211643047	0.2175360814011134
1.445	1.134407693125624	0.212986847930884
1.47	1.144822207233009	0.2085227362394048
1.495	1.155150874087495	0.2041433108955836
1.52	1.16539573076658	0.1998480294074405
1.545	1.175558735601726	0.1956362538508092
1.57	1.185641772139194	0.1915072614691999
1.595	1.195646652792798	0.1874602543376587
1.62	1.205575122215331	0.1834943681743615
1.645	1.215428914088228	0.1796086561022976
1.67	1.225212032065538	0.1758009758765365
1.695	1.234927000951086	0.1720695388756375
1.72	1.244574906503805	0.1684131362539469
1.745	1.254156806542689	0.1648305529331841
1.77	1.263673732307537	0.1613205701844881
1.795	1.273126689739342	0.1578819679597587
1.82	1.282516660686174	0.154513526994396
1.845	1.29184460403997	0.1512140307015154
1.87	1.301111456809132	0.1479822668758831
1.895	1.310318135131459	0.1448170292241735
1.92	1.319465535231561	0.1417171187366572
1.945	1.328554534326554	0.1386813449140861
1.97	1.33758599148354	0.1357085268623212
1.995	1.346560748432099	0.1327974942661512
2.02	1.355479630334759	0.1299470882527476
2.044999999999999	1.364343446518188	0.1271561621542962
2.07	1.373152991167638	0.1244235821785247
2.095	1.381909043986975	0.1217482279950963
2.12	1.390612370826473	0.1191289932451606
2.145	1.399263724280359	0.1165647859807344
2.169999999999999	1.407863844255974	0.1140545290400219
2.195	1.416413458516274	0.111597160364271
2.22	1.424913283197268	0.1091916332612925
2.245	1.433364023301877	0.1068369166203448
2.27	1.4417663731716	0.1045319950826931
2.294999999999999	1.450121016937261	0.1022758691717991
2.32	1.458428628950049	0.1000675553867681
2.345	1.466689874193958	0.09790608626238499
2.37	1.474905408680661	0.09579051039879532
2.395	1.483075879827805	0.09371989246363965
2.419999999999999	1.491201926821614	0.09169331316921876
2.445	1.499284180964659	0.08970986922705812
2.47	1.507323266009586	0.08776867328204743
2.495	1.515319798479531	0.08586885382815306
2.52	1.523274387975931	0.08400955510754085
2.544999999999999	1.531187637474369	0.08218993699479555
2.57	1.539060143609065	0.08040917486778781
2.595	1.546892496946576	0.07866645946661247
2.62	1.554685282249256	0.07696099674190662
2.645	1.56243907872896	0.07529200769374951
2.669999999999999	1.570154460291473	0.07365872820224751
2.695	1.577831995772098	0.07206040885081807
2.72	1.585472249162838	0.07049631474310255
2.745	1.593075779831532	0.06896572531436143
2.77	1.600643142733341	0.06746793413813556
2.795	1.608174888614911	0.06600224872889082
2.82	1.615671564211547	0.06456799034130471
2.845	1.623133712437704	0.06316449376679722
2.87	1.630561872571074	0.06179110712785808
2.895	1.63795658043055	0.06044719167067505
2.92	1.64531836854832	0.05913212155652443
2.945	1.652647766336327	0.05784528365234544
2.97	1.659945300247324	0.05658607732088247
2.995	1.667211493930743	0.0553539142107459
3.02	1.674446868383571	0.05414821804671
3.045	1.681651942096421	0.05296842442053798
3.07	1.688827231194989	0.05181398058259731
3.095	1.695973249577051	0.05068434523450309
3.12	1.703090509045174	0.04957898832300565
3.145	1.710179519435264	0.04849739083531642
3.17	1.717240788741132	0.04743904459604717
3.195	1.724274823235165	0.04640345206591978
3.22	1.731282127585265	0.04539012614238701
3.245	1.73826320496815	0.04439858996228968
3.27	1.745218557179143	0.04342837670666154
3.295	1.752148684738531	0.04247902940777995
3.32	1.759054086994623	0.04155010075854927
3.345	1.765935262223576	0.04064115292429131
3.37	1.772792707726074	0.03975175735700954
3.395	1.779626810886976	0.03888148104969083
3.42	1.786437362507105	0.03802984934048366
3.445	1.79322445604839	0.03719646778023628
3.47	1.799988255212964	0.03638096031034116
3.495	1.806728921843055	0.03558295796995235
3.52	1.813446615976795	0.03480209879321957
3.545	1.820141495902392	0.03403802770631624
3.57	1.826813718210741	0.03329039642438362
3.595	1.833463437846525	0.03255886334850541
3.62	1.84009080815786	0.0318430934628188
3.645	1.846695980944537	0.03114275823185995
3.67	1.853279106504912	0.03045753549823522
3.695	1.859840333681491	0.02978710938070229
3.72	1.866379809905255	0.02913117017273913
3.745	1.872897681238764	0.02848941424167267
3.77	1.8793940924181	0.02786154392843354
3.795	1.885869186893666	0.02724726744799754
3.82	1.892323106869892	0.02664629879057025
3.845	1.898755993343887	0.02605835762356543
3.87	1.905167986143066	0.02548316919442458
3.895	1.911559223961792	0.02492046423432002
3.92	1.917929844397056	0.02436997886278034
3.945	1.924279983983244	0.02383145449327344
3.97	1.930609778225999	0.0233046377397786
3.995	1.936919361635225	0.02278928032437632
4.02	1.943208867757254	0.02228513898588111
4.044999999999999	1.949478429206201	0.02179197538953999
4.07	1.955728177694531	0.02130955603781624
4.095	1.961958244062877	0.02083765218227651
4.12	1.968168758309104	0.02037603973659553
4.145	1.974359849616684	0.01992449919069176
4.169999999999999	1.980531646382351	0.01948281552600497
4.195	1.986684276243114	0.019050778131924
4.22	1.992817866102595	0.01862818072337257
4.245	1.998932542156753	0.01821482125955797
4.27	2.005028429918989	0.01781050186388678
4.294999999999999	2.011105654244661	0.01741502874505003
4.32	2.017164339355015	0.0170282121192787
4.345	2.023204608860564	0.01664986613376949
4.37	2.029226585783921	0.0162798087912793
4.395	2.035230392582098	0.01591786187588598
4.419999999999999	2.041216151168304	0.01556385087991198
4.445	2.047183982933229	0.01521760493200612
4.47	2.053134008765851	0.01487895672637844
4.495	2.059066349073775	0.01454774245318181
4.52	2.064981123803103	0.01422380173003343
4.544999999999999	2.070878452457859	0.01390697753466873
4.57	2.07675845411899	0.01359711613871932
4.595	2.082621247462926	0.01329406704260633
4.62	2.088466950779742	0.01299768291153966
4.645	2.094295681990911	0.01270781951261345
4.669999999999999	2.100107558666665	0.01242433565298748
4.695	2.105902698042981	0.01214709311914375
4.72	2.11168121703818	0.01187595661720741
4.745	2.117443232269183	0.01161079371432044
4.77	2.123188860067393	0.01135147478105656
4.794999999999999	2.128918216494247	0.01109787293486562
4.82	2.134631417356415	0.0108498639845349
4.845	2.140328578220685	0.01060732637565545
4.87	2.146009814428513	0.01037014113708058
4.895	2.151675241110264	0.01013819182836404
4.919999999999999	2.157324973199144	0.009911364488164977
4.945	2.162959125444833	0.009689547583606747
4.97	2.168577812426816	0.009472631960576665
4.995	2.174181148567436	0.009260510794953465
5.02	2.179769248144659	0.009053079544749485
5.044999999999999	2.185342225304561	0.008850235903154353
5.07	2.190900194073548	0.008651879752466932
5.095	2.196443268370309	0.008457913118902499
5.12	2.201971562017512	0.008268240128261765
5.145	2.207485188753237	0.008082766962448738
5.169999999999999	2.212984262242168	0.007901401816824287
5.195	2.218468896086536	0.007724054858382186
5.22	2.223939203836817	0.007550638184734843
5.245	2.2293952990022	0.007381065783895518
5.27	2.234837295060817	0.007215253494844258
5.294999999999999	2.240265305469747	0.007053118968864787
5.32	2.245679443674796	0.00689458163163943
5.345	2.251079823120052	0.006739562646089694
5.37	2.25646655725723	0.006587984875949756
5.395	2.261839759554792	0.006439772850060522
5.419999999999999	2.267199543506866	0.006294852727372021
5.445	2.272546022641954	0.006153152262641743
5.47	2.277879310531434	0.006014600772817057
5.495	2.28319952079786	0.005879129104089593
5.52	2.288506767123066	0.005746669599609824
5.544999999999999	2.293801163256072	0.005617156067850214
5.57	2.299082823020797	0.005490523751605219
5.595	2.304351860323577	0.005366709297616891
5.62	2.309608389160501	0.005245650726814672
5.645	2.314852523624553	0.005127287405158266
5.669999999999999	2.320084377912578	0.005011560015072654
5.695	2.325304066332058	0.004898410527464253
5.72	2.330511703307707	0.00478778217430767
5.745	2.335707403387898	0.004679619421792338
5.77	2.3408912812509	0.004573867944018682
5.794999999999999	2.346063451710951	0.004470474597233563
5.82	2.351224029724148	0.004369387394594776
5.845	2.356373130394175	0.004270555481454751
5.87	2.361510868977853	0.0041739291111535
5.895	2.366637360890526	0.004079459621311186
5.919999999999999	2.371752721711274	0.003987099410610809
5.945	2.376857067187969	0.003896801916061517
5.97	2.381950513242157	0.003808521590733407
5.995	2.387033175973782	0.003722213881954627
6.02	2.392105171665744	0.003637835209961884
6.044999999999999	2.397166616788296	0.003555342946995524
6.07	2.402217628003284	0.003474695396830506
6.095	2.407258322168225	0.003395851774734778
6.12	2.412288816340221	0.003318772187846645
6.145	2.417309227779728	0.003243417615962873
6.169999999999999	2.422319673954153	0.003169749892729498
6.195	2.427320272541307	0.003097731687227258
6.22	2.432311141432694	0.003027326485943939
6.245	2.437292398736653	0.002958498575125857
6.27	2.442264162781337	0.002891213023500935
6.294999999999999	2.447226552117543	0.002825435665365993
6.32	2.452179685521394	0.002761133084030876
6.345	2.457123681996856	0.002698272595612332
6.37	2.462058660778117	0.002636822233170527
6.395	2.466984741331801	0.002576750731181349
6.419999999999999	2.471902043359043	0.002518027510337679
6.445	2.476810686797405	0.002460622662672947
6.47	2.481710791822646	0.002404506937000494
6.495	2.486602478850337	0.002349651724662239
6.52	2.491485868537336	0.002296029045580401
6.544999999999999	2.4963610817831	0.002243611534606078
6.57	2.501228239730862	0.002192372428158584
6.595	2.506087463768649	0.002142285551149635
6.62	2.510938582794119	0.002093326019251451
6.645	2.515780609986202	0.002045471409433372
6.669999999999999	2.520613496020363	0.001998697440003132
6.695	2.525437289323128	0.001952980115712718
6.72	2.530252037887547	0.001908295961279474
6.745	2.535057789279032	0.001864622010538309
6.77	2.539854590641115	0.001821935795805892
6.795	2.544642488701099	0.001780215337453201
6.82	2.549421529775614	0.00173943913368284
6.845	2.554191759776089	0.001699586150507582
6.87	2.558953224214124	0.00166063581192666
6.895	2.563705968206779	0.001622567990296322
6.92	2.568450036481777	0.001585362996891271
6.945	2.57318547338261	0.001549001572653588
6.97	2.577912322873583	0.001513464879125842
6.995	2.582630628544752	0.001478734489565091
7.02	2.587340433616803	0.001444792380234531
7.045	2.592041780945834	0.001411620921869618
7.07	2.596734713028075	0.001379202871315493
7.095	2.601419272004521	0.001347521363332609
7.12	2.606095499665498	0.001316559902567512
7.145	2.610763437455154	0.001286302355685725
7.17	2.615423126475877	0.001256732943663795
7.195	2.620074607492645	0.00122783623423755
7.22	2.624717920937306	0.001199597134503662
7.245	2.629353106912796	0.001172000883671724
7.27	2.633980205197279	0.001145033045963966
7.295	2.638599255248234	0.001118679503659906
7.32	2.643210296206476	0.001092926450283194
7.345	2.647813366900108	0.001067760383927968
7.37	2.652408505848421	0.001043168100722106
7.395	2.656995751265729	0.001019136688424758
7.42	2.661575141065142	0.0009956535201556351
7.445	2.666146712862289	0.0009727062482535125
7.47	2.670710503978976	0.0009502827982614967
7.495	2.675266551446802	0.0009283713630366324
7.52	2.679814892010696	0.0009069603969814309
7.545	2.68435556213243	0.0008860386103950016
7.57	2.688888597994052	0.0008655949639414525
7.595	2.693414035501291	0.0008456186632332909
7.62	2.697931910286893	0.0008260991535276011
7.645	2.702442257713913	0.0008070261145327819
7.67	2.706945112878967	0.0007883894553237046
7.695	2.711440510615419	0.0007701793093631489
7.72	2.715928485496539	0.0007523860296274469
7.745	2.720409071838596	0.0007350001838342774
7.77	2.724882303703926	0.0007180125497705904
7.795	2.729348214903934	0.0007014141107186992
7.82	2.733806839002069	0.0006851960509785748
7.845	2.738258209316748	0.0006693497514844462
7.87	2.742702358924236	0.0006538667855138297
7.895	2.747139320661493	0.0006387389144871344
7.92	2.751569127128969	0.0006239580838560479
7.945	2.755991810693367	0.0006095164190789127
7.97	2.760407403490363	0.0005954062216813527
7.995	2.764815937427288	0.0005816199654004424
8.019999999999999	2.76921744418577	0.0005681502924107215
8.044999999999999	2.773611955224343	0.0005549900096304209
8.07	2.777999501781017	0.0005421320851062667
8.095	2.782380114875806	0.0005295696444752725
8.120000000000001	2.786753825313231	0.0005172959675019635
8.144999999999999	2.791120663684779	0.0005053044846894937
8.169999999999999	2.795480660371332	0.0004935887739631523
8.195	2.799833845545566	0.0004821425574247905
8.22	2.804180249174304	0.0004709596981767074
8.245000000000001	2.80851990102085	0.0004600341972135836
8.269999999999999	2.812852830647282	0.0004493601903810658
8.294999999999999	2.817179067416723	0.0004389319453996273
8.32	2.821498640495564	0.0004287438589523782
8.345	2.825811578855678	0.0004187904538354887
8.370000000000001	2.830117911276585	0.0004090663761699496
8.395000000000001	2.8344176663476	0.0003995663926733957
8.419999999999999	2.838710872469945	0.0003902853879907529
8.445	2.842997557858836	0.0003812183620824862
8.47	2.84727775054554	0.0003723604276692628
8.495000000000001	2.851551478379405	0.0003637068077318476
8.520000000000001	2.855818769029862	0.0003552528330650888
8.544999999999999	2.860079649988404	0.0003469939398848665
8.57	2.864334148570532	0.0003389256674868956
8.595	2.868582291917679	0.0003310436559563083
8.620000000000001	2.872824106999111	0.0003233436439269441
8.645000000000001	2.877059620613798	0.0003158214663893139
8.669999999999999	2.881288859392261	0.000308473052546216
8.695	2.8855118497984	0.0003012944237149994
8.72	2.88972861813129	0.0002942816912755049
8.745000000000001	2.89393919052696	0.0002874310546627091
8.770000000000001	2.898143592960148	0.0002807387994031402
8.794999999999999	2.902341851246025	0.0002742012951941371
8.82	2.906533991041913	0.0002678149940250479
8.845	2.910720037848962	0.000261576428339486
8.870000000000001	2.91490001701382	0.0002554822092377659
8.895000000000001	2.919073953730273	0.000249529024718675
8.919999999999999	2.923241873040869	0.0002437136379597453
8.945	2.927403799838518	0.0002380328856352036
8.97	2.931559758868073	0.0002324836762708078
8.995000000000001	2.935709774727888	0.0002270629886347746
9.020000000000001	2.939853871871366	0.0002217678701640366
9.044999999999999	2.943992074608468	0.0002165954354250746
9.07	2.948124407107231	0.0002115428646085828
9.095	2.952250893395234	0.000206607402057253
9.120000000000001	2.956371557361078	0.0002017863548259588
9.145000000000001	2.960486422755819	0.000197077091273655
9.169999999999999	2.964595513194406	0.0001924770396863082
9.195	2.968698852157087	0.000187983686930194
9.22	2.9727964629908	0.0001835945771349114
9.245000000000001	2.976888368910552	0.0001793073104054715
9.270000000000001	2.980974593000774	0.0001751195415628386
9.294999999999999	2.985055158216667	0.0001710289789123117
9.32	2.989130087385524	0.0001670333830391429
9.345	2.99319940320804	0.0001631305656308112
9.370000000000001	2.997263128259601	0.0001593183883253707
9.395000000000001	3.001321284991568	0.0001555947615853144
9.419999999999999	3.005373895732534	0.0001519576435963994
9.445	3.009420982689571	0.0001484050391908946
9.47	3.013462567949461	0.0001449349987947235
9.495000000000001	3.017498673479912	0.0001415456173979812
9.520000000000001	3.02152932113076	0.0001382350335483213
9.544999999999999	3.025554532635155	0.0001350014283667157
9.57	3.029574329610738	0.0001318430245851001
9.595	3.03358873356079	0.000128758085605433
9.620000000000001	3.037597765875389	0.0001257449145796974
9.645000000000001	3.041601447832531	0.0001228018535103938
9.669999999999999	3.045599800599255	0.0001199272823710755
9.695	3.049592845232743	0.00011711961824649
9.72	3.053580602681411	0.0001143773144918997
9.745000000000001	3.057563093785995	0.0001116988599111615
9.770000000000001	3.061540339280605	0.000109082777953156
9.794999999999999	3.065512359793789	0.0001065276259261672
9.82	3.069479175849566	0.0001040319942298152
9.845	3.073440807868461	0.0001015945056041645
9.870000000000001	3.077397276168517	0.00009921381439562437
9.895000000000001	3.081348600966302	0.0000968886058392784
9.919999999999999	3.085294802377902	0.00009461759535728096
9.945	3.089235900419903	0.00009239952787296691
9.97	3.093171915010362	0.00009023317714033208
9.995000000000001	3.097102865969762	0.00008811734508854387
10.02	3.101028773021965	0.00008605086118115307
10.045	3.104949655795148	0.00008403258178968315
10.07	3.108865533822728	0.00008206138958127952
10.095	3.112776426544279	0.00008013619292011116
10.12	3.116682353306433	0.0000782559252822185
10.145	3.120583333363786	0.00007641954468351312
10.17	3.124479385879769	0.00007462603312063839
10.195	3.128370529927534	0.00007287439602440606
10.22	3.132256784490814	0.00007116366172553307
10.245	3.136138168464776	0.00006949288093240416
10.27	3.140014700656871	0.00006786112622059562
10.295	3.143886399787669	0.00006626749153389993
10.32	3.147753284491684	0.00006471109169659524
10.345	3.151615373318191	0.000063191061936713
10.37	3.155472684732036	0.00006170655742005665
10.395	3.159325237114437	0.00006025675279473576
10.42	3.163173048763768	0.00005884084174598048
10.445	3.167016137896347	0.00005745803656100825
10.47	3.170854522647203	0.00005610756770372075
