t[s]	x	Tg[10^9K]	dTg/dt[10^9K/s]	rho_tot[g cm^-3]	H[s^-1]	n nue->p e	p e->n nue	n->p e nue	p e nue->n	n e->p nue	p nue->n e
7.141167e-07	5.126576e-03	2.264666e+03	-7.874597e+07	2.246077e+15	3.544956e+04	1.129832e+14	1.122365e+14	2.508620e-01	2.492042e-01	1.129832e+14	1.122365e+14
1.464782e-06	5.256355e-03	2.210828e+03	-7.172008e+07	2.032688e+15	3.372360e+04	9.995126e+13	9.927439e+13	2.508826e-01	2.491836e-01	9.995125e+13	9.927438e+13
2.253640e-06	5.389421e-03	2.158394e+03	-6.646847e+07	1.840625e+15	3.209084e+04	8.862949e+13	8.801473e+13	2.509033e-01	2.491630e-01	8.862948e+13	8.801472e+13
3.082747e-06	5.525855e-03	2.107563e+03	-6.130882e+07	1.666256e+15	3.053299e+04	7.861284e+13	7.805436e+13	2.509245e-01	2.491419e-01	7.861283e+13	7.805435e+13
3.953926e-06	5.665742e-03	2.057886e+03	-5.702207e+07	1.509204e+15	2.905845e+04	6.978775e+13	6.928005e+13	2.509460e-01	2.491204e-01	6.978775e+13	6.928005e+13
4.869389e-06	5.809171e-03	2.009395e+03	-5.296854e+07	1.366726e+15	2.765280e+04	6.194719e+13	6.148569e+13	2.509681e-01	2.490984e-01	6.194718e+13	6.148568e+13
5.831280e-06	5.956231e-03	1.962010e+03	-4.926244e+07	1.237975e+15	2.631809e+04	5.498964e+13	5.457013e+13	2.509907e-01	2.490759e-01	5.498963e+13	5.457012e+13
6.842012e-06	6.107014e-03	1.915804e+03	-4.571568e+07	1.121219e+15	2.504630e+04	4.880904e+13	4.842772e+13	2.510139e-01	2.490528e-01	4.880903e+13	4.842771e+13
7.904044e-06	6.261614e-03	1.870692e+03	-4.247762e+07	1.015520e+15	2.383651e+04	4.333013e+13	4.298348e+13	2.510375e-01	2.490292e-01	4.333013e+13	4.298348e+13
9.019998e-06	6.420127e-03	1.826679e+03	-3.943948e+07	9.197510e+14	2.268473e+04	3.846691e+13	3.815178e+13	2.510618e-01	2.490050e-01	3.846690e+13	3.815177e+13
1.019260e-05	6.582653e-03	1.783758e+03	-3.660288e+07	8.330260e+14	2.158876e+04	3.415311e+13	3.386660e+13	2.510866e-01	2.489803e-01	3.415310e+13	3.386660e+13
1.142473e-05	6.749294e-03	1.741943e+03	-3.393752e+07	7.544835e+14	2.054581e+04	3.032793e+13	3.006742e+13	2.511120e-01	2.489550e-01	3.032792e+13	3.006741e+13
1.271932e-05	6.920153e-03	1.701010e+03	-3.161817e+07	6.834414e+14	1.955461e+04	2.693872e+13	2.670179e+13	2.511380e-01	2.489292e-01	2.693871e+13	2.670178e+13
1.407969e-05	7.095338e-03	1.661143e+03	-2.930602e+07	6.189366e+14	1.860894e+04	2.392149e+13	2.370605e+13	2.511646e-01	2.489026e-01	2.392148e+13	2.370605e+13
1.550908e-05	7.274957e-03	1.622227e+03	-2.722587e+07	5.606165e+14	1.771052e+04	2.124886e+13	2.105292e+13	2.511918e-01	2.488755e-01	2.124885e+13	2.105292e+13
1.701098e-05	7.459123e-03	1.584207e+03	-2.531470e+07	5.077872e+14	1.685541e+04	1.887584e+13	1.869763e+13	2.512196e-01	2.488478e-01	1.887584e+13	1.869763e+13
1.858915e-05	7.647952e-03	1.547182e+03	-2.346057e+07	4.598904e+14	1.604079e+04	1.676706e+13	1.660498e+13	2.512481e-01	2.488194e-01	1.676705e+13	1.660497e+13
2.024731e-05	7.841561e-03	1.510941e+03	-2.185611e+07	4.165912e+14	1.526699e+04	1.489891e+13	1.475146e+13	2.512773e-01	2.487904e-01	1.489891e+13	1.475146e+13
2.198973e-05	8.040071e-03	1.475669e+03	-2.024322e+07	3.772718e+14	1.452866e+04	1.323539e+13	1.310128e+13	2.513072e-01	2.487607e-01	1.323539e+13	1.310127e+13
2.382048e-05	8.243606e-03	1.441209e+03	-1.882260e+07	3.417481e+14	1.382775e+04	1.176240e+13	1.164038e+13	2.513377e-01	2.487303e-01	1.176240e+13	1.164038e+13
2.574409e-05	8.452294e-03	1.407539e+03	-1.750373e+07	3.095503e+14	1.316025e+04	1.045299e+13	1.034198e+13	2.513689e-01	2.486992e-01	1.045299e+13	1.034197e+13
2.776535e-05	8.666265e-03	1.374700e+03	-1.624666e+07	2.803595e+14	1.252438e+04	9.288868e+12	9.187867e+12	2.514009e-01	2.486673e-01	9.288866e+12	9.187865e+12
2.988916e-05	8.885653e-03	1.342629e+03	-1.510103e+07	2.539419e+14	1.191971e+04	8.255756e+12	8.163856e+12	2.514336e-01	2.486348e-01	8.255754e+12	8.163854e+12
3.212073e-05	9.110594e-03	1.311334e+03	-1.402369e+07	2.300070e+14	1.134407e+04	7.337599e+12	7.253980e+12	2.514671e-01	2.486014e-01	7.337597e+12	7.253978e+12
3.446546e-05	9.341230e-03	1.280753e+03	-1.304234e+07	2.083415e+14	1.079658e+04	6.522283e+12	6.446192e+12	2.515014e-01	2.485673e-01	6.522282e+12	6.446190e+12
3.692917e-05	9.577704e-03	1.250907e+03	-1.211412e+07	1.887064e+14	1.027524e+04	5.797232e+12	5.727995e+12	2.515365e-01	2.485324e-01	5.797231e+12	5.727993e+12
3.951779e-05	9.820165e-03	1.221769e+03	-1.125642e+07	1.709328e+14	9.779377e+03	5.153253e+12	5.090247e+12	2.515725e-01	2.484966e-01	5.153251e+12	5.090245e+12
4.223766e-05	1.006876e-02	1.193325e+03	-1.045763e+07	1.548347e+14	9.307490e+03	4.581039e+12	4.523702e+12	2.516093e-01	2.484601e-01	4.581038e+12	4.523701e+12
4.509538e-05	1.032366e-02	1.165532e+03	-9.725624e+06	1.402560e+14	8.858481e+03	4.072660e+12	4.020478e+12	2.516469e-01	2.484226e-01	4.072658e+12	4.020477e+12
4.809802e-05	1.058500e-02	1.138378e+03	-9.043265e+06	1.270446e+14	8.430950e+03	3.620524e+12	3.573037e+12	2.516854e-01	2.483843e-01	3.620523e+12	3.573036e+12
5.125302e-05	1.085296e-02	1.111920e+03	-8.386328e+06	1.150706e+14	8.023810e+03	3.218485e+12	3.175270e+12	2.517249e-01	2.483450e-01	3.218483e+12	3.175269e+12
5.456777e-05	1.112770e-02	1.086004e+03	-7.818228e+06	1.042470e+14	7.637131e+03	2.861899e+12	2.822565e+12	2.517653e-01	2.483049e-01	2.861898e+12	2.822564e+12
5.805084e-05	1.140940e-02	1.060767e+03	-7.245690e+06	9.441412e+13	7.268034e+03	2.543994e+12	2.508201e+12	2.518067e-01	2.482638e-01	2.543993e+12	2.508200e+12
6.171032e-05	1.169823e-02	1.036086e+03	-6.744301e+06	8.553123e+13	6.917686e+03	2.262200e+12	2.229620e+12	2.518489e-01	2.482218e-01	2.262199e+12	2.229619e+12
6.555532e-05	1.199438e-02	1.011986e+03	-6.268030e+06	7.747656e+13	6.583907e+03	2.011340e+12	1.981687e+12	2.518923e-01	2.481787e-01	2.011339e+12	1.981686e+12
6.959516e-05	1.229802e-02	9.884367e+02	-5.829176e+06	7.018337e+13	6.266364e+03	1.788356e+12	1.761367e+12	2.519366e-01	2.481346e-01	1.788355e+12	1.761367e+12
7.383981e-05	1.260934e-02	9.654511e+02	-5.415217e+06	6.357419e+13	5.964017e+03	1.590027e+12	1.565465e+12	2.519821e-01	2.480895e-01	1.590026e+12	1.565464e+12
7.829948e-05	1.292855e-02	9.429878e+02	-5.036986e+06	5.759129e+13	5.676451e+03	1.413811e+12	1.391455e+12	2.520286e-01	2.480433e-01	1.413810e+12	1.391454e+12
8.298521e-05	1.325584e-02	9.210547e+02	-4.680813e+06	5.216849e+13	5.402598e+03	1.257049e+12	1.236702e+12	2.520762e-01	2.479960e-01	1.257048e+12	1.236701e+12
8.790840e-05	1.359141e-02	8.996372e+02	-4.350338e+06	4.725738e+13	5.142014e+03	1.117719e+12	1.099200e+12	2.521250e-01	2.479476e-01	1.117719e+12	1.099200e+12
9.308104e-05	1.393548e-02	8.787212e+02	-4.043578e+06	4.280930e+13	4.894040e+03	9.938671e+11	9.770114e+11	2.521749e-01	2.478981e-01	9.938665e+11	9.770108e+11
9.851578e-05	1.428826e-02	8.583076e+02	-3.756140e+06	3.877991e+13	4.658026e+03	8.837604e+11	8.684185e+11	2.522260e-01	2.478474e-01	8.837599e+11	8.684180e+11
1.042256e-04	1.464996e-02	8.383444e+02	-3.496270e+06	3.513277e+13	4.433581e+03	7.859294e+11	7.719642e+11	2.522782e-01	2.477955e-01	7.859289e+11	7.719637e+11
1.102248e-04	1.502083e-02	8.188679e+02	-3.246507e+06	3.182542e+13	4.219739e+03	6.988324e+11	6.861219e+11	2.523318e-01	2.477423e-01	6.988319e+11	6.861214e+11
1.165278e-04	1.540108e-02	7.998443e+02	-3.018210e+06	2.883200e+13	4.016390e+03	6.214755e+11	6.099056e+11	2.523866e-01	2.476880e-01	6.214751e+11	6.099052e+11
1.231499e-04	1.579096e-02	7.812659e+02	-2.805485e+06	2.611955e+13	3.822798e+03	5.526857e+11	5.421541e+11	2.524427e-01	2.476323e-01	5.526853e+11	5.421537e+11
1.301074e-04	1.619071e-02	7.631275e+02	-2.607036e+06	2.366243e+13	3.638548e+03	4.915232e+11	4.819365e+11	2.525002e-01	2.475754e-01	4.915228e+11	4.819361e+11
1.374171e-04	1.660058e-02	7.454115e+02	-2.423639e+06	2.143710e+13	3.463231e+03	4.371556e+11	4.284287e+11	2.525589e-01	2.475171e-01	4.371552e+11	4.284283e+11
1.450969e-04	1.702083e-02	7.281167e+02	-2.251997e+06	1.942073e+13	3.296335e+03	3.888070e+11	3.808627e+11	2.526191e-01	2.474575e-01	3.888067e+11	3.808623e+11
1.531654e-04	1.745171e-02	7.112271e+02	-2.093278e+06	1.759454e+13	3.137527e+03	3.458311e+11	3.385988e+11	2.526807e-01	2.473964e-01	3.458308e+11	3.385985e+11
1.616423e-04	1.789351e-02	6.947345e+02	-1.945584e+06	1.594000e+13	2.986363e+03	3.076158e+11	3.010315e+11	2.527437e-01	2.473340e-01	3.076155e+11	3.010313e+11
1.705483e-04	1.834648e-02	6.786376e+02	-1.807422e+06	1.444097e+13	2.842475e+03	2.736354e+11	2.676409e+11	2.528082e-01	2.472701e-01	2.736351e+11	2.676407e+11
1.799050e-04	1.881093e-02	6.629182e+02	-1.680022e+06	1.308344e+13	2.705574e+03	2.434336e+11	2.379757e+11	2.528742e-01	2.472047e-01	2.434333e+11	2.379755e+11
1.897352e-04	1.928713e-02	6.475748e+02	-1.560845e+06	1.185325e+13	2.575237e+03	2.165740e+11	2.116046e+11	2.529418e-01	2.471378e-01	2.165738e+11	2.116043e+11
2.000628e-04	1.977538e-02	6.325931e+02	-1.450645e+06	1.073900e+13	2.451209e+03	1.926968e+11	1.881717e+11	2.530109e-01	2.470694e-01	1.926966e+11	1.881715e+11
2.109130e-04	2.027600e-02	6.179689e+02	-1.347820e+06	9.729407e+12	2.333145e+03	1.714621e+11	1.673415e+11	2.530816e-01	2.469995e-01	1.714619e+11	1.673413e+11
2.223122e-04	2.078929e-02	6.036897e+02	-1.252653e+06	8.814890e+12	2.220787e+03	1.525819e+11	1.488293e+11	2.531540e-01	2.469279e-01	1.525818e+11	1.488291e+11
2.342881e-04	2.131557e-02	5.897516e+02	-1.163846e+06	7.986214e+12	2.113825e+03	1.357893e+11	1.323717e+11	2.532280e-01	2.468546e-01	1.357891e+11	1.323715e+11
2.468701e-04	2.185518e-02	5.761446e+02	-1.081467e+06	7.235504e+12	2.012023e+03	1.208569e+11	1.177442e+11	2.533037e-01	2.467798e-01	1.208568e+11	1.177440e+11
2.600886e-04	2.240845e-02	5.628600e+02	-1.004998e+06	6.555347e+12	1.915122e+03	1.075762e+11	1.047409e+11	2.533812e-01	2.467032e-01	1.075760e+11	1.047408e+11
2.739760e-04	2.297572e-02	5.498916e+02	-9.338223e+05	5.939077e+12	1.822879e+03	9.576264e+10	9.317998e+10	2.534605e-01	2.466248e-01	9.576249e+10	9.317984e+10
2.885662e-04	2.355735e-02	5.372303e+02	-8.677996e+05	5.380771e+12	1.735085e+03	8.525467e+10	8.290194e+10	2.535416e-01	2.465447e-01	8.525454e+10	8.290181e+10
3.038946e-04	2.415371e-02	5.248691e+02	-8.064207e+05	4.874911e+12	1.651512e+03	7.590615e+10	7.376274e+10	2.536245e-01	2.464628e-01	7.590602e+10	7.376262e+10
3.199988e-04	2.476516e-02	5.128003e+02	-7.494205e+05	4.416581e+12	1.571960e+03	6.758877e+10	6.563593e+10	2.537094e-01	2.463790e-01	6.758865e+10	6.563581e+10
3.369180e-04	2.539210e-02	5.010162e+02	-6.964902e+05	4.001305e+12	1.496233e+03	6.018789e+10	5.840857e+10	2.537962e-01	2.462933e-01	6.018778e+10	5.840846e+10
3.546937e-04	2.603490e-02	4.895106e+02	-6.472700e+05	3.625027e+12	1.424145e+03	5.360167e+10	5.198035e+10	2.538850e-01	2.462056e-01	5.360156e+10	5.198025e+10
3.733692e-04	2.669398e-02	4.782750e+02	-6.016221e+05	3.284112e+12	1.355525e+03	4.774026e+10	4.626282e+10	2.539759e-01	2.461160e-01	4.774016e+10	4.626273e+10
3.929903e-04	2.736974e-02	4.673036e+02	-5.591635e+05	2.975198e+12	1.290198e+03	4.252274e+10	4.117635e+10	2.540688e-01	2.460243e-01	4.252265e+10	4.117626e+10
4.136050e-04	2.806261e-02	4.565884e+02	-5.197812e+05	2.695312e+12	1.228013e+03	3.787831e+10	3.665128e+10	2.541639e-01	2.459305e-01	3.787822e+10	3.665120e+10
4.352638e-04	2.877301e-02	4.461235e+02	-4.831726e+05	2.441704e+12	1.168813e+03	3.374314e+10	3.262484e+10	2.542612e-01	2.458346e-01	3.374306e+10	3.262477e+10
4.580199e-04	2.950141e-02	4.359018e+02	-4.491870e+05	2.211920e+12	1.112457e+03	3.006118e+10	2.904194e+10	2.543608e-01	2.457366e-01	3.006111e+10	2.904187e+10
4.819290e-04	3.024824e-02	4.259168e+02	-4.176239e+05	2.003717e+12	1.058807e+03	2.678226e+10	2.585328e+10	2.544627e-01	2.456362e-01	2.678220e+10	2.585321e+10
5.070499e-04	3.101398e-02	4.161623e+02	-3.883012e+05	1.815069e+12	1.007732e+03	2.386192e+10	2.301517e+10	2.545669e-01	2.455336e-01	2.386185e+10	2.301511e+10
5.334443e-04	3.179910e-02	4.066320e+02	-3.610723e+05	1.644143e+12	9.591096e+02	2.126067e+10	2.048887e+10	2.546736e-01	2.454285e-01	2.126061e+10	2.048881e+10
5.611771e-04	3.260410e-02	3.973197e+02	-3.357858e+05	1.489274e+12	9.128212e+02	1.894336e+10	1.823987e+10	2.547828e-01	2.453211e-01	1.894330e+10	1.823981e+10
5.903167e-04	3.342947e-02	3.882200e+02	-3.122786e+05	1.348951e+12	8.687536e+02	1.687874e+10	1.623751e+10	2.548946e-01	2.452111e-01	1.687868e+10	1.623746e+10
6.209348e-04	3.427574e-02	3.793267e+02	-2.904620e+05	1.221819e+12	8.268026e+02	1.503917e+10	1.445470e+10	2.550091e-01	2.450986e-01	1.503912e+10	1.445465e+10
6.531070e-04	3.514344e-02	3.706343e+02	-2.701824e+05	1.106630e+12	7.868640e+02	1.339985e+10	1.286713e+10	2.551262e-01	2.449835e-01	1.339980e+10	1.286708e+10
6.869126e-04	3.603310e-02	3.621375e+02	-2.513437e+05	1.002269e+12	7.488429e+02	1.193892e+10	1.145338e+10	2.552462e-01	2.448656e-01	1.193888e+10	1.145334e+10
7.224353e-04	3.694528e-02	3.538308e+02	-2.338408e+05	9.077205e+11	7.126471e+02	1.063685e+10	1.019433e+10	2.553691e-01	2.447450e-01	1.063681e+10	1.019429e+10
7.597628e-04	3.788055e-02	3.457093e+02	-2.175747e+05	8.220619e+11	6.781890e+02	9.476279e+09	9.072980e+09	2.554950e-01	2.446214e-01	9.476240e+09	9.072943e+09
7.989876e-04	3.883951e-02	3.377679e+02	-2.024582e+05	7.444603e+11	6.453856e+02	8.441773e+09	8.074249e+09	2.556239e-01	2.444949e-01	8.441737e+09	8.074214e+09
8.402068e-04	3.982273e-02	3.300019e+02	-1.884077e+05	6.741595e+11	6.141576e+02	7.519596e+09	7.184696e+09	2.557560e-01	2.443654e-01	7.519562e+09	7.184664e+09
8.835228e-04	4.083085e-02	3.224066e+02	-1.753464e+05	6.104746e+11	5.844297e+02	6.697524e+09	6.392380e+09	2.558913e-01	2.442327e-01	6.697492e+09	6.392350e+09
9.290429e-04	4.186449e-02	3.149775e+02	-1.632033e+05	5.527849e+11	5.561303e+02	5.964678e+09	5.686672e+09	2.560301e-01	2.440968e-01	5.964648e+09	5.686644e+09
9.768803e-04	4.292429e-02	3.077105e+02	-1.519121e+05	5.005278e+11	5.291912e+02	5.311370e+09	5.058117e+09	2.561722e-01	2.439576e-01	5.311342e+09	5.058090e+09
1.027154e-03	4.401093e-02	3.006012e+02	-1.414116e+05	4.531933e+11	5.035473e+02	4.728974e+09	4.498297e+09	2.563180e-01	2.438149e-01	4.728948e+09	4.498273e+09
1.079989e-03	4.512507e-02	2.936458e+02	-1.316450e+05	4.103196e+11	4.791369e+02	4.209809e+09	3.999723e+09	2.564675e-01	2.436687e-01	4.209785e+09	3.999700e+09
1.135516e-03	4.626741e-02	2.868403e+02	-1.225595e+05	3.714876e+11	4.559011e+02	3.747029e+09	3.555723e+09	2.566207e-01	2.435189e-01	3.747006e+09	3.555702e+09
1.193875e-03	4.743868e-02	2.801815e+02	-1.141004e+05	3.363171e+11	4.337834e+02	3.334536e+09	3.160359e+09	2.567779e-01	2.433653e-01	3.334515e+09	3.160339e+09
1.255211e-03	4.863960e-02	2.736650e+02	-1.062436e+05	3.044665e+11	4.127321e+02	2.966914e+09	2.808356e+09	2.569391e-01	2.432078e-01	2.966894e+09	2.808338e+09
1.319676e-03	4.987091e-02	2.672883e+02	-9.891718e+04	2.756203e+11	3.926938e+02	2.639270e+09	2.494957e+09	2.571046e-01	2.430463e-01	2.639252e+09	2.494940e+09
1.387432e-03	5.113340e-02	2.610477e+02	-9.210459e+04	2.494995e+11	3.736227e+02	2.347330e+09	2.216005e+09	2.572743e-01	2.428807e-01	2.347313e+09	2.215989e+09
1.458648e-03	5.242785e-02	2.549401e+02	-8.576147e+04	2.258459e+11	3.554713e+02	2.087219e+09	1.967737e+09	2.574485e-01	2.427109e-01	2.087203e+09	1.967722e+09
1.533501e-03	5.375507e-02	2.489628e+02	-7.985412e+04	2.044276e+11	3.381958e+02	1.855504e+09	1.746818e+09	2.576273e-01	2.425367e-01	1.855489e+09	1.746804e+09
1.612179e-03	5.511588e-02	2.431128e+02	-7.435299e+04	1.850345e+11	3.217546e+02	1.649123e+09	1.550277e+09	2.578108e-01	2.423580e-01	1.649109e+09	1.550264e+09
1.694879e-03	5.651115e-02	2.373875e+02	-6.922946e+04	1.674759e+11	3.061080e+02	1.465340e+09	1.375462e+09	2.579992e-01	2.421746e-01	1.465327e+09	1.375450e+09
1.781808e-03	5.794173e-02	2.317844e+02	-6.445685e+04	1.515789e+11	2.912178e+02	1.301713e+09	1.220007e+09	2.581927e-01	2.419865e-01	1.301701e+09	1.219996e+09
1.873182e-03	5.940854e-02	2.263010e+02	-6.001058e+04	1.371870e+11	2.770480e+02	1.156063e+09	1.081804e+09	2.583913e-01	2.417935e-01	1.156052e+09	1.081793e+09
1.969231e-03	6.091247e-02	2.209349e+02	-5.586792e+04	1.241582e+11	2.635641e+02	1.026447e+09	9.589694e+08	2.585953e-01	2.415954e-01	1.026437e+09	9.589599e+08
2.070196e-03	6.245448e-02	2.156840e+02	-5.200777e+04	1.123640e+11	2.507333e+02	9.111279e+08	8.498263e+08	2.588047e-01	2.413921e-01	9.111184e+08	8.498175e+08
2.176328e-03	6.403552e-02	2.105460e+02	-4.841061e+04	1.016877e+11	2.385244e+02	8.085550e+08	7.528769e+08	2.590199e-01	2.411834e-01	8.085462e+08	7.528687e+08
2.287894e-03	6.565659e-02	2.055191e+02	-4.505831e+04	9.202388e+10	2.269075e+02	7.173446e+08	6.667853e+08	2.592409e-01	2.409693e-01	7.173364e+08	6.667778e+08
2.405173e-03	6.731869e-02	2.006011e+02	-4.193406e+04	8.327678e+10	2.158542e+02	6.362607e+08	5.903601e+08	2.594678e-01	2.407495e-01	6.362532e+08	5.903531e+08
2.528458e-03	6.902287e-02	1.957902e+02	-3.902230e+04	7.535974e+10	2.053375e+02	5.642002e+08	5.225379e+08	2.597010e-01	2.405239e-01	5.641932e+08	5.225315e+08
2.658059e-03	7.077019e-02	1.910846e+02	-3.630856e+04	6.819424e+10	1.953315e+02	5.001777e+08	4.623707e+08	2.599405e-01	2.402923e-01	5.001713e+08	4.623648e+08
2.794300e-03	7.256175e-02	1.864825e+02	-3.377942e+04	6.170915e+10	1.858118e+02	4.433137e+08	4.090125e+08	2.601865e-01	2.400547e-01	4.433078e+08	4.090071e+08
2.937521e-03	7.439866e-02	1.819821e+02	-3.142242e+04	5.584004e+10	1.767549e+02	3.928233e+08	3.617091e+08	2.604392e-01	2.398108e-01	3.928178e+08	3.617041e+08
3.088082e-03	7.628207e-02	1.775818e+02	-2.922599e+04	5.052855e+10	1.681384e+02	3.480055e+08	3.197880e+08	2.606988e-01	2.395604e-01	3.480005e+08	3.197834e+08
3.246360e-03	7.821316e-02	1.732799e+02	-2.717934e+04	4.572182e+10	1.599412e+02	3.082352e+08	2.826496e+08	2.609655e-01	2.393035e-01	3.082306e+08	2.826453e+08
3.412750e-03	8.019313e-02	1.690748e+02	-2.527246e+04	4.137199e+10	1.521429e+02	2.729544e+08	2.497594e+08	2.612394e-01	2.390399e-01	2.729502e+08	2.497555e+08
3.587670e-03	8.222323e-02	1.649649e+02	-2.349602e+04	3.743571e+10	1.447243e+02	2.416656e+08	2.206416e+08	2.615207e-01	2.387693e-01	2.416617e+08	2.206380e+08
3.771557e-03	8.430472e-02	1.609486e+02	-2.184133e+04	3.387372e+10	1.376670e+02	2.139250e+08	1.948719e+08	2.618096e-01	2.384917e-01	2.139214e+08	1.948686e+08
3.964876e-03	8.643891e-02	1.570242e+02	-2.029968e+04	3.064869e+10	1.309497e+02	1.893371e+08	1.720729e+08	2.621064e-01	2.382069e-01	1.893337e+08	1.720698e+08
4.168106e-03	8.862712e-02	1.531904e+02	-1.886486e+04	2.773254e+10	1.245642e+02	1.675494e+08	1.519084e+08	2.624111e-01	2.379147e-01	1.675463e+08	1.519056e+08
4.381759e-03	9.087073e-02	1.494453e+02	-1.752858e+04	2.509243e+10	1.184868e+02	1.482479e+08	1.340796e+08	2.627241e-01	2.376150e-01	1.482451e+08	1.340770e+08
4.606365e-03	9.317113e-02	1.457875e+02	-1.628526e+04	2.270496e+10	1.127091e+02	1.311533e+08	1.183204e+08	2.630455e-01	2.373075e-01	1.311506e+08	1.183181e+08
4.842485e-03	9.552977e-02	1.422155e+02	-1.512814e+04	2.054453e+10	1.072128e+02	1.160165e+08	1.043946e+08	2.633755e-01	2.369921e-01	1.160141e+08	1.043925e+08
5.090711e-03	9.794812e-02	1.387275e+02	-1.405148e+04	1.858960e+10	1.019843e+02	1.026162e+08	9.209226e+07	2.637143e-01	2.366687e-01	1.026140e+08	9.209028e+07
5.351663e-03	1.004277e-01	1.353222e+02	-1.304989e+04	1.682063e+10	9.701069e+01	9.075563e+07	8.122679e+07	2.640621e-01	2.363371e-01	9.075360e+07	8.122497e+07
5.625994e-03	1.029700e-01	1.319977e+02	-1.211833e+04	1.521996e+10	9.227949e+01	8.025976e+07	7.163269e+07	2.644192e-01	2.359970e-01	8.025789e+07	7.163102e+07
5.914390e-03	1.055767e-01	1.287527e+02	-1.125209e+04	1.377158e+10	8.777894e+01	7.097313e+07	6.316311e+07	2.647858e-01	2.356483e-01	7.097140e+07	6.316158e+07
6.217573e-03	1.082494e-01	1.255854e+02	-1.044675e+04	1.246102e+10	8.349783e+01	6.275766e+07	5.568782e+07	2.651621e-01	2.352908e-01	6.275607e+07	5.568641e+07
6.536301e-03	1.109898e-01	1.224943e+02	-9.698177e+03	1.127516e+10	7.942549e+01	5.549078e+07	4.909138e+07	2.655484e-01	2.349244e-01	5.548931e+07	4.909008e+07
6.871413e-03	1.137995e-01	1.194778e+02	-9.001382e+03	1.019962e+10	7.554236e+01	4.906374e+07	4.327152e+07	2.659448e-01	2.345487e-01	4.906239e+07	4.327033e+07
7.223698e-03	1.166803e-01	1.165344e+02	-8.355265e+03	9.229422e+09	7.185976e+01	4.338007e+07	3.813768e+07	2.663517e-01	2.341637e-01	4.337882e+07	3.813659e+07
