t[s]	x	Tg[10^9K]	dTg/dt[10^9K/s]	rho_tot[g cm^-3]	H[s^-1]	n nue->p e	p e->n nue	n->p e nue	p e nue->n	n e->p nue	p nue->n e
2.938192e-06	1.025315e-02	1.132462e+03	-9.525472e+06	1.326791e+14	8.615883e+03	3.542427e+12	3.495762e+12	2.516927e-01	2.483771e-01	3.542426e+12	3.495761e+12
6.025026e-06	1.051271e-02	1.104723e+03	-8.986211e+06	1.202089e+14	8.201000e+03	3.135873e+12	3.093549e+12	2.517338e-01	2.483362e-01	3.135872e+12	3.093549e+12
9.270543e-06	1.077884e-02	1.078244e+03	-8.158659e+06	1.087415e+14	7.800027e+03	2.770647e+12	2.732321e+12	2.517766e-01	2.482937e-01	2.770647e+12	2.732320e+12
1.267957e-05	1.105171e-02	1.051617e+03	-7.810964e+06	9.856035e+13	7.425909e+03	2.454559e+12	2.419777e+12	2.518195e-01	2.482511e-01	2.454558e+12	2.419776e+12
1.626536e-05	1.133148e-02	1.026607e+03	-6.974531e+06	8.908283e+13	7.059850e+03	2.166471e+12	2.134999e+12	2.518648e-01	2.482060e-01	2.166470e+12	2.134999e+12
2.003076e-05	1.161834e-02	1.001268e+03	-6.729518e+06	8.078667e+13	6.723081e+03	1.921165e+12	1.892582e+12	2.519095e-01	2.481616e-01	1.921165e+12	1.892582e+12
2.399141e-05	1.191246e-02	9.775621e+02	-5.985360e+06	7.301815e+13	6.391664e+03	1.695808e+12	1.669944e+12	2.519571e-01	2.481144e-01	1.695807e+12	1.669944e+12
2.814985e-05	1.221403e-02	9.534556e+02	-5.797003e+06	6.623717e+13	6.087646e+03	1.504622e+12	1.481122e+12	2.520038e-01	2.480679e-01	1.504621e+12	1.481122e+12
3.252392e-05	1.252323e-02	9.309055e+02	-5.155408e+06	5.986750e+13	5.787541e+03	1.328294e+12	1.307027e+12	2.520537e-01	2.480183e-01	1.328293e+12	1.307027e+12
3.711654e-05	1.284025e-02	9.080227e+02	-4.982514e+06	5.430535e+13	5.512134e+03	1.178702e+12	1.159378e+12	2.521028e-01	2.479696e-01	1.178702e+12	1.159377e+12
4.194686e-05	1.316531e-02	8.865363e+02	-4.448236e+06	4.909210e+13	5.240881e+03	1.040998e+12	1.023505e+12	2.521551e-01	2.479177e-01	1.040998e+12	1.023504e+12
4.701896e-05	1.349859e-02	8.648577e+02	-4.274089e+06	4.452321e+13	4.991048e+03	9.237144e+11	9.078190e+11	2.522066e-01	2.478666e-01	9.237142e+11	9.078188e+11
5.235264e-05	1.384031e-02	8.443508e+02	-3.844794e+06	4.026324e+13	4.746275e+03	8.163426e+11	8.019459e+11	2.522612e-01	2.478124e-01	8.163423e+11	8.019456e+11
5.795418e-05	1.419068e-02	8.238328e+02	-3.662917e+06	3.650471e+13	4.519318e+03	7.241977e+11	7.111186e+11	2.523154e-01	2.477586e-01	7.241974e+11	7.111184e+11
6.384334e-05	1.454991e-02	8.042517e+02	-3.324943e+06	3.302597e+13	4.298593e+03	6.405252e+11	6.286718e+11	2.523724e-01	2.477021e-01	6.405250e+11	6.286716e+11
7.002931e-05	1.491825e-02	7.848323e+02	-3.139259e+06	2.993280e+13	4.092344e+03	5.680662e+11	5.573002e+11	2.524295e-01	2.476455e-01	5.680660e+11	5.573000e+11
7.653158e-05	1.529590e-02	7.661456e+02	-2.873872e+06	2.709157e+13	3.893279e+03	5.028353e+11	4.930721e+11	2.524889e-01	2.475865e-01	5.028351e+11	4.930719e+11
8.336253e-05	1.568312e-02	7.477495e+02	-2.693054e+06	2.454713e+13	3.705944e+03	4.458630e+11	4.369969e+11	2.525490e-01	2.475270e-01	4.458628e+11	4.369968e+11
9.054155e-05	1.608014e-02	7.299367e+02	-2.481238e+06	2.222449e+13	3.526260e+03	3.949410e+11	3.868964e+11	2.526110e-01	2.474655e-01	3.949409e+11	3.868962e+11
9.808420e-05	1.648721e-02	7.124885e+02	-2.313273e+06	2.013336e+13	3.356268e+03	3.501756e+11	3.428705e+11	2.526741e-01	2.474030e-01	3.501754e+11	3.428704e+11
1.060103e-04	1.690459e-02	6.955283e+02	-2.139792e+06	1.823247e+13	3.193900e+03	3.103564e+11	3.037252e+11	2.527389e-01	2.473388e-01	3.103563e+11	3.037250e+11
1.143382e-04	1.733253e-02	6.789613e+02	-1.989330e+06	1.651547e+13	3.039793e+03	2.752069e+11	2.691849e+11	2.528051e-01	2.472732e-01	2.752068e+11	2.691847e+11
1.230889e-04	1.777131e-02	6.628264e+02	-1.843854e+06	1.495823e+13	2.892935e+03	2.440209e+11	2.385525e+11	2.528729e-01	2.472061e-01	2.440208e+11	2.385524e+11
1.322832e-04	1.822119e-02	6.470849e+02	-1.712078e+06	1.354932e+13	2.753323e+03	2.164312e+11	2.114644e+11	2.529422e-01	2.471374e-01	2.164311e+11	2.114643e+11
1.419440e-04	1.868246e-02	6.317414e+02	-1.588226e+06	1.227276e+13	2.620413e+03	1.919770e+11	1.874654e+11	2.530132e-01	2.470672e-01	1.919769e+11	1.874653e+11
1.520945e-04	1.915541e-02	6.167784e+02	-1.474117e+06	1.111700e+13	2.493976e+03	1.703195e+11	1.662209e+11	2.530857e-01	2.469954e-01	1.703194e+11	1.662208e+11
1.627596e-04	1.964033e-02	6.021895e+02	-1.367914e+06	1.007016e+13	2.373649e+03	1.511266e+11	1.474027e+11	2.531600e-01	2.469219e-01	1.511265e+11	1.474026e+11
1.739651e-04	2.013753e-02	5.879635e+02	-1.269550e+06	9.122123e+12	2.259157e+03	1.341194e+11	1.307355e+11	2.532360e-01	2.468468e-01	1.341193e+11	1.307354e+11
1.857385e-04	2.064731e-02	5.740916e+02	-1.178246e+06	8.263479e+12	2.150205e+03	1.190449e+11	1.159697e+11	2.533137e-01	2.467699e-01	1.190449e+11	1.159696e+11
1.981083e-04	2.117000e-02	5.605643e+02	-1.093572e+06	7.485805e+12	2.046528e+03	1.056821e+11	1.028870e+11	2.533932e-01	2.466913e-01	1.056820e+11	1.028869e+11
2.111046e-04	2.170592e-02	5.473728e+02	-1.015020e+06	6.781438e+12	1.947867e+03	9.383447e+10	9.129360e+10	2.534746e-01	2.466109e-01	9.383441e+10	9.129354e+10
2.247591e-04	2.225541e-02	5.345082e+02	-9.421543e+05	6.143456e+12	1.853979e+03	8.332856e+10	8.101855e+10	2.535578e-01	2.465287e-01	8.332851e+10	8.101850e+10
2.391049e-04	2.281881e-02	5.219619e+02	-8.745611e+05	5.565586e+12	1.764631e+03	7.401087e+10	7.191049e+10	2.536429e-01	2.464446e-01	7.401082e+10	7.191044e+10
2.541770e-04	2.339647e-02	5.097255e+02	-8.118584e+05	5.042153e+12	1.679602e+03	6.574562e+10	6.383561e+10	2.537299e-01	2.463587e-01	6.574557e+10	6.383556e+10
2.700120e-04	2.398875e-02	4.977908e+02	-7.536917e+05	4.568016e+12	1.598683e+03	5.841268e+10	5.667558e+10	2.538190e-01	2.462708e-01	5.841264e+10	5.667554e+10
2.866484e-04	2.459603e-02	4.861498e+02	-6.997319e+05	4.138525e+12	1.521673e+03	5.190578e+10	5.032574e+10	2.539101e-01	2.461809e-01	5.190574e+10	5.032570e+10
3.041266e-04	2.521868e-02	4.747946e+02	-6.496741e+05	3.749465e+12	1.448382e+03	4.613085e+10	4.469351e+10	2.540032e-01	2.460890e-01	4.613081e+10	4.469347e+10
3.224891e-04	2.585710e-02	4.637177e+02	-6.032346e+05	3.397023e+12	1.378630e+03	4.100466e+10	3.969697e+10	2.540985e-01	2.459950e-01	4.100462e+10	3.969694e+10
3.417805e-04	2.651167e-02	4.529116e+02	-5.601515e+05	3.077746e+12	1.312245e+03	3.645352e+10	3.526366e+10	2.541960e-01	2.458989e-01	3.645348e+10	3.526363e+10
3.620478e-04	2.718282e-02	4.423689e+02	-5.201808e+05	2.788506e+12	1.249063e+03	3.241221e+10	3.132945e+10	2.542957e-01	2.458007e-01	3.241218e+10	3.132942e+10
3.833402e-04	2.787095e-02	4.320826e+02	-4.830964e+05	2.526474e+12	1.188929e+03	2.882299e+10	2.783758e+10	2.543977e-01	2.457002e-01	2.882296e+10	2.783755e+10
4.057094e-04	2.857651e-02	4.220458e+02	-4.486890e+05	2.289084e+12	1.131695e+03	2.563471e+10	2.473781e+10	2.545020e-01	2.455975e-01	2.563468e+10	2.473778e+10
4.292098e-04	2.929993e-02	4.122517e+02	-4.167638e+05	2.074017e+12	1.077220e+03	2.280209e+10	2.198567e+10	2.546087e-01	2.454925e-01	2.280207e+10	2.198564e+10
4.538986e-04	3.004166e-02	4.026937e+02	-3.871408e+05	1.879168e+12	1.025372e+03	2.028502e+10	1.954178e+10	2.547178e-01	2.453850e-01	2.028499e+10	1.954176e+10
4.798356e-04	3.080217e-02	3.933654e+02	-3.596522e+05	1.702635e+12	9.760213e+02	1.804795e+10	1.737128e+10	2.548295e-01	2.452752e-01	1.804793e+10	1.737126e+10
5.070840e-04	3.158193e-02	3.842605e+02	-3.341434e+05	1.542694e+12	9.290485e+02	1.605940e+10	1.544329e+10	2.549437e-01	2.451629e-01	1.605938e+10	1.544327e+10
5.357101e-04	3.238143e-02	3.753729e+02	-3.104702e+05	1.397783e+12	8.843382e+02	1.429147e+10	1.373045e+10	2.550606e-01	2.450480e-01	1.429145e+10	1.373043e+10
5.657834e-04	3.320117e-02	3.666968e+02	-2.884992e+05	1.266488e+12	8.417809e+02	1.271941e+10	1.220852e+10	2.551801e-01	2.449305e-01	1.271939e+10	1.220850e+10
5.973770e-04	3.404166e-02	3.582264e+02	-2.681067e+05	1.147529e+12	8.012727e+02	1.132130e+10	1.085604e+10	2.553025e-01	2.448104e-01	1.132129e+10	1.085602e+10
6.305679e-04	3.490343e-02	3.499559e+02	-2.491778e+05	1.039745e+12	7.627145e+02	1.007771e+10	9.653964e+09	2.554276e-01	2.446875e-01	1.007769e+10	9.653947e+09
6.654366e-04	3.578701e-02	3.418801e+02	-2.316062e+05	9.420863e+11	7.260121e+02	8.971378e+09	8.585433e+09	2.555557e-01	2.445618e-01	8.971362e+09	8.585417e+09
7.020681e-04	3.669297e-02	3.339936e+02	-2.152932e+05	8.536004e+11	6.910760e+02	7.987021e+09	7.635487e+09	2.556868e-01	2.444332e-01	7.987005e+09	7.635472e+09
7.405514e-04	3.762185e-02	3.262913e+02	-2.001477e+05	7.734254e+11	6.578210e+02	7.111067e+09	6.790865e+09	2.558210e-01	2.443017e-01	7.111053e+09	6.790851e+09
7.809801e-04	3.857426e-02	3.187681e+02	-1.860845e+05	7.007805e+11	6.261660e+02	6.331475e+09	6.039804e+09	2.559583e-01	2.441671e-01	6.331461e+09	6.039792e+09
8.234527e-04	3.955077e-02	3.114193e+02	-1.730251e+05	6.349582e+11	5.960340e+02	5.637557e+09	5.371871e+09	2.560989e-01	2.440295e-01	5.637545e+09	5.371859e+09
8.680725e-04	4.055200e-02	3.042401e+02	-1.608968e+05	5.753175e+11	5.673516e+02	5.019827e+09	4.777807e+09	2.562428e-01	2.438886e-01	5.019815e+09	4.777796e+09
9.149481e-04	4.157858e-02	2.972260e+02	-1.496317e+05	5.212779e+11	5.400490e+02	4.469859e+09	4.249397e+09	2.563901e-01	2.437444e-01	4.469848e+09	4.249386e+09
9.641936e-04	4.263115e-02	2.903727e+02	-1.391674e+05	4.723134e+11	5.140598e+02	3.980173e+09	3.779349e+09	2.565409e-01	2.435969e-01	3.980162e+09	3.779339e+09
1.015929e-03	4.371036e-02	2.836758e+02	-1.294459e+05	4.279473e+11	4.893207e+02	3.544121e+09	3.361189e+09	2.566954e-01	2.434459e-01	3.544111e+09	3.361180e+09
1.070280e-03	4.481689e-02	2.771312e+02	-1.204135e+05	3.877479e+11	4.657718e+02	3.155800e+09	2.989169e+09	2.568536e-01	2.432914e-01	3.155790e+09	2.989160e+09
1.127379e-03	4.595144e-02	2.707349e+02	-1.120201e+05	3.513240e+11	4.433558e+02	2.809959e+09	2.658182e+09	2.570156e-01	2.431332e-01	2.809950e+09	2.658174e+09
1.187364e-03	4.711470e-02	2.644832e+02	-1.042197e+05	3.183210e+11	4.220182e+02	2.501935e+09	2.363693e+09	2.571816e-01	2.429712e-01	2.501927e+09	2.363685e+09
1.250383e-03	4.830742e-02	2.583723e+02	-9.696945e+04	2.884178e+11	4.017071e+02	2.227580e+09	2.101671e+09	2.573516e-01	2.428054e-01	2.227572e+09	2.101664e+09
1.316589e-03	4.953032e-02	2.523987e+02	-9.022954e+04	2.613234e+11	3.823734e+02	1.983204e+09	1.868535e+09	2.575258e-01	2.426356e-01	1.983197e+09	1.868529e+09
1.386141e-03	5.078419e-02	2.465588e+02	-8.396306e+04	2.367740e+11	3.639699e+02	1.765529e+09	1.661102e+09	2.577043e-01	2.424617e-01	1.765522e+09	1.661096e+09
1.459211e-03	5.206980e-02	2.408494e+02	-7.813605e+04	2.145308e+11	3.464522e+02	1.571634e+09	1.476542e+09	2.578871e-01	2.422837e-01	1.571628e+09	1.476536e+09
1.535975e-03	5.338795e-02	2.352674e+02	-7.271681e+04	1.943773e+11	3.297777e+02	1.398923e+09	1.312338e+09	2.580746e-01	2.421013e-01	1.398917e+09	1.312333e+09
1.616621e-03	5.473947e-02	2.298096e+02	-6.767624e+04	1.761173e+11	3.139059e+02	1.245085e+09	1.166253e+09	2.582667e-01	2.419145e-01	1.245079e+09	1.166247e+09
1.701344e-03	5.612521e-02	2.244731e+02	-6.298750e+04	1.595731e+11	2.987984e+02	1.108061e+09	1.036293e+09	2.584636e-01	2.417232e-01	1.108056e+09	1.036288e+09
1.790350e-03	5.754603e-02	2.192550e+02	-5.862556e+04	1.445835e+11	2.844185e+02	9.860187e+08	9.206886e+08	2.586655e-01	2.415272e-01	9.860138e+08	9.206840e+08
1.883857e-03	5.900281e-02	2.141527e+02	-5.456714e+04	1.310026e+11	2.707313e+02	8.773253e+08	8.178613e+08	2.588724e-01	2.413264e-01	8.773206e+08	8.178570e+08
1.982090e-03	6.049647e-02	2.091633e+02	-5.079044e+04	1.186980e+11	2.577034e+02	7.805267e+08	7.264079e+08	2.590846e-01	2.411207e-01	7.805224e+08	7.264039e+08
2.085290e-03	6.202795e-02	2.042845e+02	-4.727584e+04	1.075498e+11	2.453033e+02	6.943281e+08	6.450793e+08	2.593022e-01	2.409099e-01	6.943240e+08	6.450756e+08
2.193705e-03	6.359820e-02	1.995137e+02	-4.400453e+04	9.744945e+10	2.335007e+02	6.175750e+08	5.727631e+08	2.595253e-01	2.406939e-01	6.175712e+08	5.727595e+08
2.307600e-03	6.520819e-02	1.948486e+02	-4.095961e+04	8.829841e+10	2.222670e+02	5.492391e+08	5.084690e+08	2.597541e-01	2.404725e-01	5.492355e+08	5.084657e+08
2.427251e-03	6.685894e-02	1.902869e+02	-3.812494e+04	8.000749e+10	2.115747e+02	4.884035e+08	4.513151e+08	2.599888e-01	2.402457e-01	4.884002e+08	4.513120e+08
2.552948e-03	6.855149e-02	1.858264e+02	-3.548610e+04	7.249588e+10	2.013980e+02	4.342515e+08	4.005163e+08	2.602294e-01	2.400132e-01	4.342484e+08	4.005134e+08
2.684996e-03	7.028688e-02	1.814650e+02	-3.302925e+04	6.569031e+10	1.917119e+02	3.860544e+08	3.553729e+08	2.604763e-01	2.397750e-01	3.860515e+08	3.553702e+08
2.823714e-03	7.206620e-02	1.772006e+02	-3.074174e+04	5.952442e+10	1.824929e+02	3.431628e+08	3.152620e+08	2.607295e-01	2.395309e-01	3.431601e+08	3.152595e+08
2.969439e-03	7.389056e-02	1.730311e+02	-2.861178e+04	5.393807e+10	1.737185e+02	3.049978e+08	2.796287e+08	2.609892e-01	2.392807e-01	3.049952e+08	2.796264e+08
3.122523e-03	7.576111e-02	1.689547e+02	-2.662850e+04	4.887676e+10	1.653673e+02	2.710433e+08	2.479790e+08	2.612556e-01	2.390242e-01	2.710408e+08	2.479768e+08
3.283337e-03	7.767901e-02	1.649695e+02	-2.478167e+04	4.429113e+10	1.574189e+02	2.408389e+08	2.198726e+08	2.615289e-01	2.387614e-01	2.408367e+08	2.198705e+08
3.452269e-03	7.964546e-02	1.610736e+02	-2.306193e+04	4.013645e+10	1.498539e+02	2.139746e+08	1.949176e+08	2.618093e-01	2.384921e-01	2.139724e+08	1.949156e+08
3.629728e-03	8.166170e-02	1.572652e+02	-2.146071e+04	3.637220e+10	1.426538e+02	1.900844e+08	1.727649e+08	2.620969e-01	2.382160e-01	1.900824e+08	1.727631e+08
3.816141e-03	8.372897e-02	1.535426e+02	-1.996971e+04	3.296166e+10	1.358010e+02	1.688421e+08	1.531034e+08	2.623920e-01	2.379331e-01	1.688402e+08	1.531018e+08
4.011959e-03	8.584858e-02	1.499040e+02	-1.858131e+04	2.987154e+10	1.292788e+02	1.499570e+08	1.356565e+08	2.626947e-01	2.376431e-01	1.499553e+08	1.356550e+08
4.217654e-03	8.802185e-02	1.463478e+02	-1.728864e+04	2.707172e+10	1.230712e+02	1.331701e+08	1.201778e+08	2.630053e-01	2.373460e-01	1.331685e+08	1.201763e+08
4.433721e-03	9.025013e-02	1.428723e+02	-1.608524e+04	2.453490e+10	1.171630e+02	1.182504e+08	1.064478e+08	2.633238e-01	2.370415e-01	1.182488e+08	1.064464e+08
4.660682e-03	9.253483e-02	1.394760e+02	-1.496468e+04	2.223632e+10	1.115398e+02	1.049919e+08	9.427116e+07	2.636507e-01	2.367294e-01	1.049904e+08	9.426989e+07
4.899081e-03	9.487736e-02	1.361570e+02	-1.392163e+04	2.015358e+10	1.061878e+02	9.321136e+07	8.347435e+07	2.639860e-01	2.364096e-01	9.321003e+07	8.347316e+07
5.149493e-03	9.727919e-02	1.329141e+02	-1.295061e+04	1.826639e+10	1.010939e+02	8.274544e+07	7.390269e+07	2.643300e-01	2.360819e-01	8.274419e+07	7.390158e+07
5.412520e-03	9.974182e-02	1.297454e+02	-1.204680e+04	1.655634e+10	9.624555e+01	7.344860e+07	6.541874e+07	2.646829e-01	2.357461e-01	7.344744e+07	6.541770e+07
5.688792e-03	1.022668e-01	1.266496e+02	-1.120562e+04	1.500678e+10	9.163097e+01	6.519126e+07	5.790019e+07	2.650450e-01	2.354020e-01	6.519017e+07	5.789922e+07
5.978974e-03	1.048557e-01	1.236252e+02	-1.042266e+04	1.360262e+10	8.723881e+01	5.785801e+07	5.123834e+07	2.654164e-01	2.350495e-01	5.785699e+07	5.123743e+07
6.283761e-03	1.075101e-01	1.206705e+02	-9.694042e+03	1.233017e+10	8.305831e+01	5.134621e+07	4.533660e+07	2.657975e-01	2.346883e-01	5.134525e+07	4.533576e+07
6.603915e-03	1.102318e-01	1.177843e+02	-9.015172e+03	1.117498e+10	7.907184e+01	4.556445e+07	4.010911e+07	2.661884e-01	2.343182e-01	4.556355e+07	4.010832e+07
6.940167e-03	1.130223e-01	1.149650e+02	-8.384436e+03	1.013056e+10	7.528617e+01	4.043139e+07	3.547958e+07	2.665894e-01	2.339391e-01	4.043055e+07	3.547884e+07
7.293325e-03	1.158835e-01	1.124369e+02	-7.158633e+03	9.183846e+09	7.168211e+01	3.587444e+07	3.138028e+07	2.670112e-01	2.335411e-01	3.587392e+07	3.137936e+07
7.663744e-03	1.188171e-01	1.095868e+02	-7.694318e+03	8.347905e+09	6.834193e+01	3.177241e+07	2.803976e+07	2.674429e-01	2.331351e-01	3.215118e+07	2.769904e+07
8.053458e-03	1.218249e-01	1.071896e+02	-6.151198e+03	7.541716e+09	6.495814e+01	2.811933e+07	2.461515e+07	2.679266e-01	2.326804e-01	2.832515e+07	2.443028e+07
8.462094e-03	1.249090e-01	1.045690e+02	-6.412805e+03	6.859443e+09	6.195023e+01	2.492812e+07	2.200619e+07	2.683920e-01	2.322445e-01	2.540222e+07	2.158282e+07
8.891558e-03	1.280710e-01	1.021479e+02	-5.637584e+03	6.210269e+09	5.894591e+01	2.209590e+07	1.940841e+07	2.689060e-01	2.317635e-01	2.248426e+07	1.906275e+07
9.342328e-03	1.313132e-01	9.969296e+01	-5.446117e+03	5.637060e+09	5.615970e+01	1.959509e+07	1.723350e+07	2.694204e-01	2.312833e-01	2.003424e+07	1.684396e+07
9.815815e-03	1.346374e-01	9.734037e+01	-4.968649e+03	5.109125e+09	5.346527e+01	1.737775e+07	1.523084e+07	2.699587e-01	2.307817e-01	1.777186e+07	1.488244e+07
1.031293e-02	1.380457e-01	9.501294e+01	-4.681899e+03	4.635024e+09	5.092423e+01	1.541465e+07	1.349113e+07	2.705030e-01	2.302755e-01	1.580064e+07	1.315105e+07
1.083497e-02	1.415404e-01	9.275068e+01	-4.333493e+03	4.202980e+09	4.849279e+01	1.367413e+07	1.192991e+07	2.710620e-01	2.297566e-01	1.402630e+07	1.162069e+07
1.138310e-02	1.451235e-01	9.053155e+01	-4.048531e+03	3.812341e+09	4.618430e+01	1.213130e+07	1.055441e+07	2.716301e-01	2.292302e-01	1.245814e+07	1.026842e+07
1.195867e-02	1.487973e-01	8.836639e+01	-3.761795e+03	3.457600e+09	4.398310e+01	1.076303e+07	9.331308e+06	2.722101e-01	2.286938e-01	1.105926e+07	9.073031e+06
1.256300e-02	1.525641e-01	8.624865e+01	-3.504244e+03	3.136202e+09	4.188905e+01	9.549554e+06	8.249934e+06	2.728009e-01	2.281485e-01	9.818391e+06	8.016378e+06
1.319756e-02	1.564263e-01	8.418061e+01	-3.259044e+03	2.844642e+09	3.989443e+01	8.473160e+06	7.291574e+06	2.734040e-01	2.275929e-01	8.714970e+06	7.082273e+06
1.386382e-02	1.603863e-01	8.215993e+01	-3.032864e+03	2.580313e+09	3.799572e+01	7.518329e+06	6.443771e+06	2.740192e-01	2.270273e-01	7.735457e+06	6.256541e+06
1.456337e-02	1.644465e-01	8.018669e+01	-2.820723e+03	2.340580e+09	3.618764e+01	6.671270e+06	5.693417e+06	2.746469e-01	2.264514e-01	6.865452e+06	5.526617e+06
1.529786e-02	1.686094e-01	7.825967e+01	-2.623611e+03	2.123190e+09	3.446616e+01	5.919798e+06	5.029798e+06	2.752872e-01	2.258651e-01	6.093208e+06	4.881426e+06
1.606903e-02	1.728778e-01	7.637818e+01	-2.439788e+03	1.926037e+09	3.282697e+01	5.253115e+06	4.442918e+06	2.759407e-01	2.252679e-01	5.407710e+06	4.311173e+06
1.687870e-02	1.772542e-01	7.454137e+01	-2.268600e+03	1.747236e+09	3.126614e+01	4.661642e+06	3.924065e+06	2.766082e-01	2.246593e-01	4.799350e+06	3.807193e+06
1.772877e-02	1.817415e-01	7.274835e+01	-2.109253e+03	1.585074e+09	2.977990e+01	4.136892e+06	3.465450e+06	2.772902e-01	2.240389e-01	4.259507e+06	3.361822e+06
1.862126e-02	1.863423e-01	7.099830e+01	-1.960866e+03	1.437997e+09	2.836465e+01	3.671337e+06	3.060150e+06	2.779874e-01	2.234061e-01	3.780500e+06	2.968284e+06
1.955827e-02	1.910595e-01	6.929039e+01	-1.822726e+03	1.304598e+09	2.701698e+01	3.258298e+06	2.702038e+06	2.787007e-01	2.227602e-01	3.355517e+06	2.620581e+06
2.054200e-02	1.958962e-01	6.762372e+01	-1.694229e+03	1.183601e+09	2.573364e+01	2.891851e+06	2.385676e+06	2.794305e-01	2.221009e-01	2.978493e+06	2.313404e+06
2.157479e-02	2.008554e-01	6.599750e+01	-1.574592e+03	1.073849e+09	2.451152e+01	2.566739e+06	2.106229e+06	2.801770e-01	2.214282e-01	2.644019e+06	2.042060e+06
2.265905e-02	2.059400e-01	6.441094e+01	-1.463262e+03	9.742962e+08	2.334769e+01	2.278300e+06	1.859434e+06	2.809407e-01	2.207417e-01	2.347315e+06	1.802394e+06
2.379735e-02	2.111534e-01	6.286313e+01	-1.359754e+03	8.839914e+08	2.223937e+01	2.022396e+06	1.641506e+06	2.817222e-01	2.200410e-01	2.084124e+06	1.590730e+06
2.499237e-02	2.164988e-01	6.135331e+01	-1.263422e+03	8.020719e+08	2.118386e+01	1.795354e+06	1.449081e+06	2.825222e-01	2.193255e-01	1.850651e+06	1.403816e+06
2.624692e-02	2.219795e-01	5.988065e+01	-1.173862e+03	7.277577e+08	2.017864e+01	1.593918e+06	1.279199e+06	2.833413e-01	2.185951e-01	1.643546e+06	1.238775e+06
2.756396e-02	2.275990e-01	5.844432e+01	-1.090572e+03	6.603399e+08	1.922128e+01	1.415196e+06	1.129229e+06	2.841802e-01	2.178489e-01	1.459822e+06	1.093063e+06
2.894674e-02	2.333606e-01	5.705538e+01	-1.004458e+03	5.990430e+08	1.830743e+01	1.256622e+06	9.968462e+05	2.850398e-01	2.170866e-01	1.296833e+06	9.644274e+05
