t[s]	x	Tg[10^9K]	dTg/dt[10^9K/s]	rho_tot[g cm^-3]	H[s^-1]	n nue->p e	p e->n nue	n->p e nue	p e nue->n	n e->p nue	p nue->n e
3.105168e-06	1.025315e-02	1.132462e+03	-9.013252e+06	1.187935e+14	8.152576e+03	3.542427e+12	3.495762e+12	2.516927e-01	2.483771e-01	3.542426e+12	3.495761e+12
6.367390e-06	1.051271e-02	1.104836e+03	-8.468652e+06	1.076307e+14	7.760086e+03	3.135873e+12	3.093549e+12	2.517338e-01	2.483362e-01	3.135872e+12	3.093549e+12
9.796666e-06	1.077884e-02	1.078252e+03	-7.751949e+06	9.739980e+13	7.382059e+03	2.772054e+12	2.733712e+12	2.517764e-01	2.482939e-01	2.772054e+12	2.733711e+12
1.339955e-05	1.105171e-02	1.052043e+03	-7.274358e+06	8.823939e+13	7.026349e+03	2.454647e+12	2.419864e+12	2.518194e-01	2.482511e-01	2.454647e+12	2.419864e+12
1.718678e-05	1.133148e-02	1.026669e+03	-6.699945e+06	7.985816e+13	6.684334e+03	2.170865e+12	2.139343e+12	2.518640e-01	2.482068e-01	2.170865e+12	2.139342e+12
2.116660e-05	1.161834e-02	1.001920e+03	-6.218743e+06	7.231639e+13	6.360875e+03	1.921743e+12	1.893154e+12	2.519094e-01	2.481617e-01	1.921743e+12	1.893153e+12
2.534886e-05	1.191246e-02	9.777962e+02	-5.768077e+06	6.548477e+13	6.052971e+03	1.701326e+12	1.675395e+12	2.519558e-01	2.481156e-01	1.701325e+12	1.675394e+12
2.974378e-05	1.221403e-02	9.542779e+02	-5.351234e+06	5.930093e+13	5.760089e+03	1.506421e+12	1.482899e+12	2.520033e-01	2.480684e-01	1.506420e+12	1.482898e+12
3.436210e-05	1.252323e-02	9.313476e+02	-4.965074e+06	5.370260e+13	5.481459e+03	1.334022e+12	1.312682e+12	2.520520e-01	2.480201e-01	1.334021e+12	1.312682e+12
3.921512e-05	1.284025e-02	9.089907e+02	-4.606813e+06	4.863388e+13	5.216365e+03	1.181499e+12	1.162138e+12	2.521018e-01	2.479706e-01	1.181499e+12	1.162138e+12
4.431471e-05	1.316531e-02	8.871930e+02	-4.274393e+06	4.404462e+13	4.964150e+03	1.046549e+12	1.028981e+12	2.521528e-01	2.479200e-01	1.046548e+12	1.028980e+12
4.967332e-05	1.349859e-02	8.659407e+02	-3.966016e+06	3.988943e+13	4.724191e+03	9.271346e+11	9.111921e+11	2.522050e-01	2.478682e-01	9.271344e+11	9.111918e+11
5.530405e-05	1.384031e-02	8.452199e+02	-3.679948e+06	3.612717e+13	4.495888e+03	8.214572e+11	8.069882e+11	2.522584e-01	2.478152e-01	8.214569e+11	8.069880e+11
6.122063e-05	1.419068e-02	8.250173e+02	-3.414573e+06	3.272059e+13	4.278673e+03	7.279255e+11	7.147925e+11	2.523131e-01	2.477609e-01	7.279253e+11	7.147923e+11
6.743750e-05	1.454991e-02	8.053198e+02	-3.168395e+06	2.963599e+13	4.072004e+03	6.451341e+11	6.332125e+11	2.523690e-01	2.477054e-01	6.451339e+11	6.332122e+11
7.396982e-05	1.491825e-02	7.861146e+02	-2.940029e+06	2.684286e+13	3.875368e+03	5.718409e+11	5.610176e+11	2.524263e-01	2.476486e-01	5.718407e+11	5.610174e+11
8.083349e-05	1.529590e-02	7.673892e+02	-2.728188e+06	2.431360e+13	3.688274e+03	5.069481e+11	4.971210e+11	2.524849e-01	2.475905e-01	5.069479e+11	4.971208e+11
8.804525e-05	1.568312e-02	7.491314e+02	-2.531676e+06	2.202323e+13	3.510257e+03	4.494857e+11	4.405619e+11	2.525449e-01	2.475310e-01	4.494855e+11	4.405617e+11
9.562264e-05	1.608014e-02	7.313291e+02	-2.349385e+06	1.994911e+13	3.340875e+03	3.985960e+11	3.904917e+11	2.526062e-01	2.474702e-01	3.985958e+11	3.904915e+11
1.035841e-04	1.648721e-02	7.139709e+02	-2.180285e+06	1.807079e+13	3.179706e+03	3.535212e+11	3.461602e+11	2.526690e-01	2.474080e-01	3.535210e+11	3.461601e+11
1.119490e-04	1.690459e-02	6.970451e+02	-2.023423e+06	1.636972e+13	3.026350e+03	3.135913e+11	3.069047e+11	2.527333e-01	2.473443e-01	3.135912e+11	3.069046e+11
1.207377e-04	1.733253e-02	6.805408e+02	-1.877911e+06	1.482916e+13	2.880426e+03	2.782141e+11	2.721393e+11	2.527990e-01	2.472792e-01	2.782140e+11	2.721392e+11
1.299715e-04	1.777131e-02	6.644469e+02	-1.742929e+06	1.343390e+13	2.741571e+03	2.468658e+11	2.413463e+11	2.528663e-01	2.472126e-01	2.468657e+11	2.413462e+11
1.396728e-04	1.822119e-02	6.487529e+02	-1.617714e+06	1.217021e+13	2.609441e+03	2.190836e+11	2.140680e+11	2.529351e-01	2.471445e-01	2.190835e+11	2.140679e+11
1.498653e-04	1.868246e-02	6.334483e+02	-1.501557e+06	1.102565e+13	2.483708e+03	1.944581e+11	1.898998e+11	2.530055e-01	2.470748e-01	1.944580e+11	1.898997e+11
1.605736e-04	1.915541e-02	6.185230e+02	-1.393804e+06	9.988958e+12	2.364061e+03	1.726271e+11	1.684840e+11	2.530775e-01	2.470035e-01	1.726270e+11	1.684839e+11
1.718238e-04	1.964033e-02	6.039671e+02	-1.293846e+06	9.049947e+12	2.250202e+03	1.532706e+11	1.495044e+11	2.531512e-01	2.469307e-01	1.532705e+11	1.495043e+11
1.836431e-04	2.013753e-02	5.897707e+02	-1.201117e+06	8.199385e+12	2.141850e+03	1.361054e+11	1.326814e+11	2.532265e-01	2.468561e-01	1.361053e+11	1.326813e+11
1.960601e-04	2.064731e-02	5.759246e+02	-1.115093e+06	7.428921e+12	2.038738e+03	1.208808e+11	1.177676e+11	2.533036e-01	2.467799e-01	1.208807e+11	1.177675e+11
2.091051e-04	2.117000e-02	5.624193e+02	-1.035291e+06	6.730992e+12	1.940609e+03	1.073753e+11	1.045443e+11	2.533825e-01	2.467019e-01	1.073753e+11	1.045443e+11
2.228095e-04	2.170592e-02	5.492458e+02	-9.612564e+05	6.098750e+12	1.847221e+03	9.539286e+10	9.281819e+10	2.534632e-01	2.466222e-01	9.539280e+10	9.281813e+10
2.372066e-04	2.225541e-02	5.363953e+02	-8.925726e+05	5.525998e+12	1.758344e+03	8.475984e+10	8.241805e+10	2.535457e-01	2.465406e-01	8.475978e+10	8.241799e+10
2.523313e-04	2.281881e-02	5.238591e+02	-8.288520e+05	5.007125e+12	1.673758e+03	7.532272e+10	7.319252e+10	2.536301e-01	2.464572e-01	7.532266e+10	7.319247e+10
2.682203e-04	2.339647e-02	5.116289e+02	-7.697336e+05	4.537048e+12	1.593255e+03	6.694557e+10	6.500764e+10	2.537165e-01	2.463720e-01	6.694552e+10	6.500759e+10
2.849119e-04	2.398875e-02	4.996963e+02	-7.148832e+05	4.111169e+12	1.516635e+03	5.950807e+10	5.774488e+10	2.538048e-01	2.462847e-01	5.950802e+10	5.774483e+10
3.024467e-04	2.459603e-02	4.880534e+02	-6.639907e+05	3.725321e+12	1.443711e+03	5.290371e+10	5.129934e+10	2.538952e-01	2.461955e-01	5.290367e+10	5.129930e+10
3.208670e-04	2.521868e-02	4.766923e+02	-6.167692e+05	3.375734e+12	1.374303e+03	4.703817e+10	4.557819e+10	2.539877e-01	2.461043e-01	4.703813e+10	4.557815e+10
3.402175e-04	2.585710e-02	4.656054e+02	-5.729521e+05	3.058991e+12	1.308241e+03	4.182793e+10	4.049921e+10	2.540823e-01	2.460111e-01	4.182789e+10	4.049918e+10
3.605450e-04	2.651167e-02	4.547852e+02	-5.322923e+05	2.772002e+12	1.245361e+03	3.719900e+10	3.598965e+10	2.541790e-01	2.459156e-01	3.719896e+10	3.598961e+10
3.818988e-04	2.718282e-02	4.442244e+02	-4.945620e+05	2.511964e+12	1.185510e+03	3.308584e+10	3.198506e+10	2.542780e-01	2.458181e-01	3.308581e+10	3.198502e+10
4.043305e-04	2.787095e-02	4.339160e+02	-4.595462e+05	2.276343e+12	1.128541e+03	2.943039e+10	2.842834e+10	2.543794e-01	2.457183e-01	2.943036e+10	2.842831e+10
4.278945e-04	2.857651e-02	4.238531e+02	-4.270490e+05	2.062840e+12	1.074314e+03	2.618119e+10	2.526897e+10	2.544830e-01	2.456162e-01	2.618116e+10	2.526894e+10
4.526478e-04	2.929993e-02	4.140288e+02	-3.968872e+05	1.869377e+12	1.022697e+03	2.329264e+10	2.246215e+10	2.545891e-01	2.455117e-01	2.329261e+10	2.246212e+10
4.786504e-04	3.004166e-02	4.044367e+02	-3.688905e+05	1.694068e+12	9.735626e+02	2.072432e+10	1.996819e+10	2.546976e-01	2.454049e-01	2.072429e+10	1.996816e+10
5.059652e-04	3.080217e-02	3.950704e+02	-3.429020e+05	1.535207e+12	9.267915e+02	1.844039e+10	1.775193e+10	2.548087e-01	2.452956e-01	1.844036e+10	1.775190e+10
5.346584e-04	3.158193e-02	3.859237e+02	-3.187758e+05	1.391250e+12	8.822693e+02	1.640906e+10	1.578220e+10	2.549224e-01	2.451838e-01	1.640904e+10	1.578218e+10
5.647995e-04	3.238143e-02	3.769906e+02	-2.963766e+05	1.260797e+12	8.398874e+02	1.460216e+10	1.403137e+10	2.550388e-01	2.450694e-01	1.460214e+10	1.403135e+10
5.964615e-04	3.320117e-02	3.682652e+02	-2.755790e+05	1.142579e+12	7.995426e+02	1.299468e+10	1.247493e+10	2.551579e-01	2.449523e-01	1.299466e+10	1.247491e+10
6.297211e-04	3.404166e-02	3.597419e+02	-2.562666e+05	1.035448e+12	7.611365e+02	1.156444e+10	1.109116e+10	2.552799e-01	2.448325e-01	1.156442e+10	1.109114e+10
6.646590e-04	3.490343e-02	3.514151e+02	-2.383316e+05	9.383625e+11	7.245758e+02	1.029174e+10	9.860783e+09	2.554048e-01	2.447099e-01	1.029172e+10	9.860765e+09
7.013597e-04	3.578701e-02	3.432795e+02	-2.216736e+05	8.503809e+11	6.897715e+02	9.159120e+09	8.766699e+09	2.555327e-01	2.445844e-01	9.159103e+09	8.766682e+09
7.399123e-04	3.669297e-02	3.353299e+02	-2.062008e+05	7.706488e+11	6.566391e+02	8.151061e+09	7.793737e+09	2.556637e-01	2.444559e-01	8.151045e+09	7.793721e+09
7.804101e-04	3.762185e-02	3.275614e+02	-1.918267e+05	6.983924e+11	6.250982e+02	7.253786e+09	6.928430e+09	2.557978e-01	2.443244e-01	7.253771e+09	6.928415e+09
8.229513e-04	3.857426e-02	3.199689e+02	-1.784717e+05	6.329105e+11	5.950722e+02	6.455061e+09	6.158823e+09	2.559352e-01	2.441898e-01	6.455046e+09	6.158809e+09
8.676392e-04	3.955077e-02	3.125480e+02	-1.660624e+05	5.735680e+11	5.664883e+02	5.744016e+09	5.474304e+09	2.560760e-01	2.440519e-01	5.744002e+09	5.474291e+09
9.145818e-04	4.055200e-02	3.052939e+02	-1.545301e+05	5.197890e+11	5.392772e+02	5.110992e+09	4.865445e+09	2.562202e-01	2.439106e-01	5.110979e+09	4.865433e+09
9.638932e-04	4.157858e-02	2.982024e+02	-1.438111e+05	4.710521e+11	5.133729e+02	4.547405e+09	4.323873e+09	2.563680e-01	2.437660e-01	4.547394e+09	4.323862e+09
1.015693e-03	4.263115e-02	2.912692e+02	-1.338471e+05	4.268847e+11	4.887129e+02	4.045627e+09	3.842152e+09	2.565195e-01	2.436178e-01	4.045616e+09	3.842142e+09
1.070106e-03	4.371036e-02	2.844902e+02	-1.245833e+05	3.868585e+11	4.652374e+02	3.598873e+09	3.413671e+09	2.566748e-01	2.434661e-01	3.598862e+09	3.413662e+09
1.127265e-03	4.481689e-02	2.778615e+02	-1.159692e+05	3.505854e+11	4.428895e+02	3.201109e+09	3.032556e+09	2.568340e-01	2.433105e-01	3.201099e+09	3.032547e+09
1.187308e-03	4.595144e-02	2.713793e+02	-1.079582e+05	3.177135e+11	4.216153e+02	2.846969e+09	2.693586e+09	2.569972e-01	2.431512e-01	2.846960e+09	2.693577e+09
1.250381e-03	4.711470e-02	2.650401e+02	-1.005067e+05	2.879242e+11	4.013633e+02	2.531679e+09	2.392115e+09	2.571645e-01	2.429879e-01	2.531670e+09	2.392107e+09
1.316636e-03	4.830742e-02	2.588403e+02	-9.357479e+04	2.609286e+11	3.820844e+02	2.250989e+09	2.124017e+09	2.573361e-01	2.428205e-01	2.250981e+09	2.124009e+09
1.386235e-03	4.953032e-02	2.527765e+02	-8.712506e+04	2.364648e+11	3.637322e+02	2.001119e+09	1.885617e+09	2.575121e-01	2.426489e-01	2.001112e+09	1.885610e+09
1.459344e-03	5.078419e-02	2.468456e+02	-8.112319e+04	2.142956e+11	3.462622e+02	1.778701e+09	1.673649e+09	2.576927e-01	2.424730e-01	1.778695e+09	1.673642e+09
1.536142e-03	5.206980e-02	2.410445e+02	-7.553699e+04	1.942059e+11	3.296322e+02	1.580739e+09	1.485204e+09	2.578780e-01	2.422926e-01	1.580732e+09	1.485198e+09
1.616815e-03	5.338795e-02	2.353703e+02	-7.033716e+04	1.760007e+11	3.138020e+02	1.404562e+09	1.317696e+09	2.580680e-01	2.421077e-01	1.404556e+09	1.317690e+09
1.701556e-03	5.473947e-02	2.298200e+02	-6.549608e+04	1.595034e+11	2.987332e+02	1.247792e+09	1.168821e+09	2.582631e-01	2.419181e-01	1.247786e+09	1.168816e+09
1.790572e-03	5.612521e-02	2.243911e+02	-6.098849e+04	1.445538e+11	2.843893e+02	1.108311e+09	1.036530e+09	2.584632e-01	2.417236e-01	1.108306e+09	1.036525e+09
1.884077e-03	5.754603e-02	2.190809e+02	-5.679109e+04	1.310069e+11	2.707357e+02	9.842315e+08	9.189968e+08	2.586687e-01	2.415241e-01	9.842266e+08	9.189922e+08
1.982297e-03	5.900281e-02	2.138868e+02	-5.288156e+04	1.187310e+11	2.577393e+02	8.738705e+08	8.145953e+08	2.588795e-01	2.413195e-01	8.738659e+08	8.145910e+08
2.085469e-03	6.049647e-02	2.088066e+02	-4.924012e+04	1.076070e+11	2.453685e+02	7.757294e+08	7.218788e+08	2.590959e-01	2.411097e-01	7.757252e+08	7.218748e+08
2.193841e-03	6.202795e-02	2.038380e+02	-4.584778e+04	9.752677e+10	2.335933e+02	6.884716e+08	6.395579e+08	2.593181e-01	2.408944e-01	6.884677e+08	6.395542e+08
2.307676e-03	6.359820e-02	1.989787e+02	-4.268744e+04	8.839240e+10	2.223852e+02	6.109061e+08	5.664846e+08	2.595463e-01	2.406736e-01	6.109024e+08	5.664812e+08
2.427246e-03	6.520819e-02	1.942266e+02	-3.974280e+04	8.011512e+10	2.117170e+02	5.419708e+08	5.016362e+08	2.597804e-01	2.404470e-01	5.419673e+08	5.016330e+08
2.552841e-03	6.685894e-02	1.895798e+02	-3.699903e+04	7.261451e+10	2.015627e+02	4.807190e+08	4.441018e+08	2.600209e-01	2.402146e-01	4.807158e+08	4.440988e+08
2.684761e-03	6.855149e-02	1.850361e+02	-3.444236e+04	6.581766e+10	1.918977e+02	4.263069e+08	3.930702e+08	2.602678e-01	2.399762e-01	4.263039e+08	3.930675e+08
2.823323e-03	7.028688e-02	1.805938e+02	-3.206002e+04	5.965850e+10	1.826984e+02	3.779819e+08	3.478189e+08	2.605213e-01	2.397316e-01	3.779791e+08	3.478163e+08
2.968860e-03	7.206620e-02	1.762510e+02	-2.983993e+04	5.407715e+10	1.739424e+02	3.350731e+08	3.077041e+08	2.607815e-01	2.394807e-01	3.350705e+08	3.077018e+08
3.121722e-03	7.389056e-02	1.720058e+02	-2.777114e+04	4.901936e+10	1.656084e+02	2.969828e+08	2.721531e+08	2.610488e-01	2.392233e-01	2.969804e+08	2.721508e+08
3.282273e-03	7.576111e-02	1.678566e+02	-2.584343e+04	4.443596e+10	1.576761e+02	2.631780e+08	2.406554e+08	2.613231e-01	2.389593e-01	2.631757e+08	2.406533e+08
3.450899e-03	7.767901e-02	1.638017e+02	-2.404716e+04	4.028238e+10	1.501260e+02	2.331836e+08	2.127569e+08	2.616048e-01	2.386885e-01	2.331815e+08	2.127550e+08
3.628002e-03	7.964546e-02	1.598392e+02	-2.237356e+04	3.651826e+10	1.429399e+02	2.065765e+08	1.880533e+08	2.618941e-01	2.384107e-01	2.065746e+08	1.880516e+08
3.814006e-03	8.166170e-02	1.559677e+02	-2.081433e+04	3.310701e+10	1.361001e+02	1.829797e+08	1.661849e+08	2.621910e-01	2.381258e-01	1.829779e+08	1.661832e+08
4.009354e-03	8.372897e-02	1.521854e+02	-1.936179e+04	3.001548e+10	1.295899e+02	1.620572e+08	1.468315e+08	2.624958e-01	2.378336e-01	1.620555e+08	1.468299e+08
4.214512e-03	8.584858e-02	1.484908e+02	-1.800878e+04	2.721363e+10	1.233933e+02	1.435101e+08	1.297085e+08	2.628088e-01	2.375339e-01	1.435085e+08	1.297070e+08
4.429968e-03	8.802185e-02	1.448822e+02	-1.674864e+04	2.467426e+10	1.174953e+02	1.270721e+08	1.145628e+08	2.631300e-01	2.372267e-01	1.270707e+08	1.145614e+08
4.656236e-03	9.025013e-02	1.413580e+02	-1.557516e+04	2.237271e+10	1.118814e+02	1.125064e+08	1.011694e+08	2.634598e-01	2.369117e-01	1.125050e+08	1.011682e+08
4.893852e-03	9.253483e-02	1.379168e+02	-1.448245e+04	2.028664e+10	1.065377e+02	9.960194e+07	8.932848e+07	2.637982e-01	2.365887e-01	9.960067e+07	8.932734e+07
5.143382e-03	9.487736e-02	1.345568e+02	-1.346514e+04	1.839581e+10	1.014514e+02	8.817148e+07	7.886252e+07	2.641455e-01	2.362576e-01	8.817030e+07	7.886146e+07
5.405416e-03	9.727919e-02	1.312766e+02	-1.251818e+04	1.668189e+10	9.660980e+01	7.804829e+07	6.961388e+07	2.645020e-01	2.359182e-01	7.804718e+07	6.961290e+07
5.680577e-03	9.974182e-02	1.280746e+02	-1.163682e+04	1.512828e+10	9.200116e+01	6.908419e+07	6.144268e+07	2.648678e-01	2.355704e-01	6.908317e+07	6.144176e+07
5.969516e-03	1.022668e-01	1.249493e+02	-1.081662e+04	1.371993e+10	8.761418e+01	6.114758e+07	5.422480e+07	2.652432e-01	2.352139e-01	6.114662e+07	5.422395e+07
6.272916e-03	1.048557e-01	1.218990e+02	-1.005347e+04	1.244320e+10	8.343813e+01	5.412156e+07	4.785020e+07	2.656283e-01	2.348485e-01	5.412066e+07	4.784941e+07
6.591528e-03	1.075101e-01	1.189224e+02	-9.342492e+03	1.128337e+10	7.945438e+01	4.790233e+07	4.222132e+07	2.660235e-01	2.344742e-01	4.790150e+07	4.222058e+07
6.926065e-03	1.102318e-01	1.160178e+02	-8.682344e+03	1.023466e+10	7.567201e+01	4.239780e+07	3.725171e+07	2.664289e-01	2.340907e-01	4.239702e+07	3.725102e+07
7.277319e-03	1.130223e-01	1.132642e+02	-7.839372e+03	9.283684e+09	7.207069e+01	3.752637e+07	3.286478e+07	2.698934e-01	2.308959e-01	3.752549e+07	3.286428e+07
7.645948e-03	1.158835e-01	1.104479e+02	-7.640059e+03	8.429146e+09	6.867367e+01	3.318703e+07	2.909905e+07	2.191633e-01	2.774236e-01	3.333286e+07	2.896694e+07
8.033214e-03	1.188171e-01	1.078273e+02	-6.766856e+03	7.637415e+09	6.536898e+01	2.934552e+07	2.561078e+07	2.209003e-01	2.757239e-01	2.943888e+07	2.552607e+07
8.439603e-03	1.218249e-01	1.051882e+02	-6.494061e+03	6.935520e+09	6.229282e+01	2.595980e+07	2.267512e+07	2.187139e-01	2.776157e-01	2.615268e+07	2.250184e+07
8.866346e-03	1.249090e-01	1.026484e+02	-5.951489e+03	6.289688e+09	5.932163e+01	2.296563e+07	1.999606e+07	2.080034e-01	2.872585e-01	2.314543e+07	1.983497e+07
9.314312e-03	1.280710e-01	1.001511e+02	-5.574741e+03	5.707854e+09	5.651125e+01	2.031996e+07	1.766341e+07	2.057496e-01	2.891657e-01	2.051946e+07	1.748535e+07
9.784626e-03	1.313132e-01	9.772472e+01	-5.159160e+03	5.178308e+09	5.382604e+01	1.798078e+07	1.558703e+07	2.065770e-01	2.882626e-01	1.817510e+07	1.541413e+07
1.027835e-02	1.346374e-01	9.535266e+01	-4.804465e+03	4.698958e+09	5.127425e+01	1.591284e+07	1.376137e+07	2.259114e-01	2.706161e-01	1.610759e+07	1.358867e+07
1.079665e-02	1.380457e-01	9.304116e+01	-4.459733e+03	4.263759e+09	4.884215e+01	1.408424e+07	1.214603e+07	2.185610e-01	2.771323e-01	1.427260e+07	1.197956e+07
1.134074e-02	1.415404e-01	9.078507e+01	-4.146545e+03	3.869203e+09	4.652745e+01	1.246722e+07	1.072151e+07	1.958669e-01	2.974219e-01	1.264923e+07	1.056118e+07
1.191189e-02	1.451235e-01	8.858522e+01	-3.851582e+03	3.511203e+09	4.432273e+01	1.103714e+07	9.463209e+06	1.821252e-01	3.095637e-01	1.121064e+07	9.310898e+06
1.251145e-02	1.487973e-01	8.643970e+01	-3.578545e+03	3.186477e+09	4.222346e+01	9.772241e+06	8.352874e+06	1.976614e-01	2.954160e-01	9.936972e+06	8.208751e+06
1.314080e-02	1.525641e-01	8.434803e+01	-3.323541e+03	2.891867e+09	4.022422e+01	8.653290e+06	7.372852e+06	2.059384e-01	2.878212e-01	8.808954e+06	7.237131e+06
1.380141e-02	1.564263e-01	8.230797e+01	-3.088118e+03	2.624609e+09	3.832047e+01	7.663386e+06	6.508191e+06	2.075221e-01	2.862210e-01	7.810238e+06	6.380616e+06
1.449484e-02	1.603863e-01	8.031956e+01	-2.867499e+03	2.382100e+09	3.650720e+01	6.787539e+06	5.744951e+06	1.964575e-01	2.958509e-01	6.925515e+06	5.625526e+06
1.522269e-02	1.644465e-01	7.838053e+01	-2.664057e+03	2.162108e+09	3.478061e+01	6.012584e+06	5.071663e+06	1.619680e-01	3.261570e-01	6.142204e+06	4.959890e+06
1.598667e-02	1.686094e-01	7.649012e+01	-2.474439e+03	1.962475e+09	3.313604e+01	5.326821e+06	4.477394e+06	1.610952e-01	3.265997e-01	5.448228e+06	4.373099e+06
1.678855e-02	1.728778e-01	7.464769e+01	-2.297623e+03	1.781321e+09	3.156964e+01	4.719899e+06	3.952993e+06	1.857481e-01	3.045670e-01	4.833488e+06	3.855791e+06
1.763020e-02	1.772542e-01	7.285166e+01	-2.133935e+03	1.616950e+09	3.007785e+01	4.182699e+06	3.490360e+06	1.586479e-01	3.280577e-01	4.289027e+06	3.399735e+06
1.851359e-02	1.817415e-01	7.110052e+01	-1.982297e+03	1.467782e+09	2.865690e+01	3.707177e+06	3.082106e+06	1.527502e-01	3.328492e-01	3.806627e+06	2.997687e+06
1.944077e-02	1.863423e-01	6.939428e+01	-1.840245e+03	1.332391e+09	2.730325e+01	3.286200e+06	2.721751e+06	1.535314e-01	3.317742e-01	3.379072e+06	2.643245e+06
2.041391e-02	1.910595e-01	6.773104e+01	-1.709158e+03	1.209531e+09	2.601399e+01	2.913467e+06	2.403862e+06	1.679864e-01	3.188162e-01	3.000311e+06	2.330766e+06
2.143527e-02	1.958962e-01	6.611024e+01	-1.586902e+03	1.098010e+09	2.478573e+01	2.583408e+06	2.123286e+06	1.926654e-01	2.970940e-01	2.664563e+06	2.055277e+06
2.250723e-02	2.008554e-01	6.453065e+01	-1.473557e+03	9.967970e+08	2.361576e+01	2.291101e+06	1.875698e+06	1.529602e-01	3.310244e-01	2.366986e+06	1.812396e+06
2.363228e-02	2.059400e-01	6.299075e+01	-1.368730e+03	9.049288e+08	2.250120e+01	2.032218e+06	1.657178e+06	1.406494e-01	3.411679e-01	2.103160e+06	1.598276e+06
2.481306e-02	2.111534e-01	6.149054e+01	-1.270525e+03	8.215287e+08	2.143926e+01	1.802895e+06	1.464239e+06	1.377640e-01	3.431487e-01	1.869142e+06	1.409496e+06
2.605232e-02	2.164988e-01	6.002819e+01	-1.180022e+03	7.458312e+08	2.042767e+01	1.599732e+06	1.293983e+06	1.642632e-01	3.200292e-01	1.661659e+06	1.243059e+06
2.735295e-02	2.219795e-01	5.860341e+01	-1.095450e+03	6.771063e+08	1.946377e+01	1.419711e+06	1.143643e+06	1.576068e-01	3.252439e-01	1.477563e+06	1.096308e+06
2.871813e-02	2.275990e-01	5.723012e+01	-1.005946e+03	6.145875e+08	1.854344e+01	1.260177e+06	1.010938e+06	1.693381e-01	3.148446e-01	1.314259e+06	9.669176e+05
3.015056e-02	2.333606e-01	5.586894e+01	-9.502497e+02	5.582288e+08	1.767277e+01	1.118893e+06	8.949943e+05	1.739169e-01	3.105448e-01	1.170861e+06	8.529203e+05
