t[s]	x	Tg[10^9K]	dTg/dt[10^9K/s]	rho_tot[g cm^-3]	H[s^-1]	n nue->p e	p e->n nue	n->p e nue	p e nue->n	n e->p nue	p nue->n e
2.955661e-06	1.025315e-02	1.132462e+03	-9.469174e+06	1.311154e+14	8.564961e+03	3.542617e+12	3.495950e+12	2.516927e-01	2.483771e-01	3.542621e+12	3.495954e+12
6.060691e-06	1.051271e-02	1.104863e+03	-8.888478e+06	1.188041e+14	8.152939e+03	3.136040e+12	3.093714e+12	2.517338e-01	2.483362e-01	3.136044e+12	3.093718e+12
9.324378e-06	1.077884e-02	1.078323e+03	-8.132024e+06	1.075341e+14	7.756602e+03	2.772547e+12	2.734199e+12	2.517763e-01	2.482939e-01	2.772551e+12	2.734202e+12
1.275309e-05	1.105171e-02	1.052165e+03	-7.629020e+06	9.743161e+13	7.383264e+03	2.455581e+12	2.420787e+12	2.518193e-01	2.482512e-01	2.455584e+12	2.420790e+12
1.635689e-05	1.133148e-02	1.026862e+03	-7.021212e+06	8.819482e+13	7.024575e+03	2.172233e+12	2.140694e+12	2.518638e-01	2.482070e-01	2.172236e+12	2.140697e+12
2.014359e-05	1.161834e-02	1.002184e+03	-6.517086e+06	7.988040e+13	6.685265e+03	1.923646e+12	1.895034e+12	2.519090e-01	2.481621e-01	1.923649e+12	1.895036e+12
2.412257e-05	1.191246e-02	9.781366e+02	-6.043613e+06	7.234705e+13	6.362223e+03	1.703653e+12	1.677693e+12	2.519553e-01	2.481161e-01	1.703655e+12	1.677696e+12
2.830346e-05	1.221403e-02	9.546958e+02	-5.606633e+06	6.552772e+13	6.054956e+03	1.509117e+12	1.485560e+12	2.520027e-01	2.480691e-01	1.509119e+12	1.485562e+12
3.269643e-05	1.252323e-02	9.318427e+02	-5.202189e+06	5.935343e+13	5.762639e+03	1.337007e+12	1.315629e+12	2.520511e-01	2.480210e-01	1.337009e+12	1.315631e+12
3.731217e-05	1.284025e-02	9.095620e+02	-4.827120e+06	5.376258e+13	5.484519e+03	1.184696e+12	1.165293e+12	2.521007e-01	2.479717e-01	1.184698e+12	1.165295e+12
4.216190e-05	1.316531e-02	8.878393e+02	-4.479172e+06	4.869993e+13	5.219906e+03	1.049887e+12	1.032274e+12	2.521515e-01	2.479213e-01	1.049889e+12	1.032276e+12
4.725739e-05	1.349859e-02	8.666603e+02	-4.156420e+06	4.411552e+13	4.968144e+03	9.305548e+11	9.145650e+11	2.522034e-01	2.478698e-01	9.305562e+11	9.145664e+11
5.261100e-05	1.384031e-02	8.460112e+02	-3.857029e+06	3.996404e+13	4.728607e+03	8.249088e+11	8.103910e+11	2.522566e-01	2.478170e-01	8.249101e+11	8.103923e+11
5.823571e-05	1.419068e-02	8.258787e+02	-3.579300e+06	3.620450e+13	4.500697e+03	7.313673e+11	7.181845e+11	2.523109e-01	2.477631e-01	7.313685e+11	7.181856e+11
6.414515e-05	1.454991e-02	8.062495e+02	-3.321662e+06	3.279978e+13	4.283847e+03	6.485325e+11	6.365605e+11	2.523666e-01	2.477078e-01	6.485336e+11	6.365615e+11
7.035361e-05	1.491825e-02	7.871110e+02	-3.082662e+06	2.971630e+13	4.077517e+03	5.751692e+11	5.642954e+11	2.524235e-01	2.476514e-01	5.751702e+11	5.642963e+11
7.687612e-05	1.529590e-02	7.684504e+02	-2.860955e+06	2.692366e+13	3.881196e+03	5.101853e+11	5.003078e+11	2.524818e-01	2.475936e-01	5.101862e+11	5.003087e+11
8.372843e-05	1.568312e-02	7.502555e+02	-2.655283e+06	2.439435e+13	3.694393e+03	4.526156e+11	4.436420e+11	2.525414e-01	2.475345e-01	4.526164e+11	4.436428e+11
9.092708e-05	1.608014e-02	7.325145e+02	-2.464493e+06	2.210345e+13	3.516645e+03	4.016068e+11	3.934534e+11	2.526024e-01	2.474741e-01	4.016076e+11	3.934541e+11
9.848946e-05	1.648721e-02	7.152155e+02	-2.287503e+06	2.002843e+13	3.347510e+03	3.564045e+11	3.489953e+11	2.526648e-01	2.474122e-01	3.564052e+11	3.489960e+11
1.064338e-04	1.690459e-02	6.983473e+02	-2.123314e+06	1.814887e+13	3.186568e+03	3.163415e+11	3.096079e+11	2.527286e-01	2.473490e-01	3.163421e+11	3.096085e+11
1.147792e-04	1.733253e-02	6.818985e+02	-1.970999e+06	1.644630e+13	3.033420e+03	2.808281e+11	2.747076e+11	2.527939e-01	2.472843e-01	2.808286e+11	2.747081e+11
1.235458e-04	1.777131e-02	6.658583e+02	-1.829696e+06	1.490399e+13	2.887685e+03	2.493426e+11	2.437787e+11	2.528606e-01	2.472182e-01	2.493431e+11	2.437792e+11
1.327546e-04	1.822119e-02	6.502161e+02	-1.698610e+06	1.350683e+13	2.749003e+03	2.214236e+11	2.163651e+11	2.529289e-01	2.471506e-01	2.214241e+11	2.163655e+11
1.424278e-04	1.868246e-02	6.349614e+02	-1.576999e+06	1.224108e+13	2.617028e+03	1.966632e+11	1.920635e+11	2.529988e-01	2.470814e-01	1.966636e+11	1.920639e+11
1.525887e-04	1.915541e-02	6.200841e+02	-1.464176e+06	1.109436e+13	2.491436e+03	1.747003e+11	1.705173e+11	2.530702e-01	2.470107e-01	1.747007e+11	1.705177e+11
1.632616e-04	1.964033e-02	6.055743e+02	-1.359504e+06	1.005543e+13	2.371913e+03	1.552155e+11	1.514110e+11	2.531433e-01	2.469384e-01	1.552159e+11	1.514114e+11
1.744720e-04	2.013753e-02	5.914223e+02	-1.262395e+06	9.114123e+12	2.258166e+03	1.379264e+11	1.344657e+11	2.532180e-01	2.468645e-01	1.379267e+11	1.344660e+11
1.862470e-04	2.064731e-02	5.776185e+02	-1.172300e+06	8.261232e+12	2.149913e+03	1.225828e+11	1.194344e+11	2.532945e-01	2.467889e-01	1.225831e+11	1.194347e+11
1.986146e-04	2.117000e-02	5.641537e+02	-1.088711e+06	7.488421e+12	2.046886e+03	1.089633e+11	1.060987e+11	2.533726e-01	2.467116e-01	1.089636e+11	1.060990e+11
2.116045e-04	2.170592e-02	5.510189e+02	-1.011156e+06	6.788145e+12	1.948830e+03	9.687217e+10	9.426550e+10	2.534526e-01	2.466326e-01	9.687241e+10	9.426574e+10
2.252478e-04	2.225541e-02	5.382052e+02	-9.391962e+05	6.153570e+12	1.855505e+03	8.613590e+10	8.376364e+10	2.535344e-01	2.465518e-01	8.613611e+10	8.376385e+10
2.395770e-04	2.281881e-02	5.257040e+02	-8.724256e+05	5.578509e+12	1.766679e+03	7.660097e+10	7.444180e+10	2.536180e-01	2.464692e-01	7.660117e+10	7.444200e+10
2.546264e-04	2.339647e-02	5.135070e+02	-8.104688e+05	5.057361e+12	1.682133e+03	6.813145e+10	6.616602e+10	2.537035e-01	2.463848e-01	6.813163e+10	6.616619e+10
2.704319e-04	2.398875e-02	5.016058e+02	-7.529741e+05	4.585051e+12	1.601661e+03	6.060694e+10	5.881766e+10	2.537910e-01	2.462984e-01	6.060711e+10	5.881782e+10
2.870313e-04	2.459603e-02	4.899925e+02	-6.996209e+05	4.156988e+12	1.525063e+03	5.392081e+10	5.229173e+10	2.538805e-01	2.462101e-01	5.392096e+10	5.229187e+10
3.044642e-04	2.521868e-02	4.786593e+02	-6.501075e+05	3.769012e+12	1.452153e+03	4.797858e+10	4.649521e+10	2.539720e-01	2.461198e-01	4.797871e+10	4.649534e+10
3.227720e-04	2.585710e-02	4.675986e+02	-6.041543e+05	3.417355e+12	1.382750e+03	4.269654e+10	4.134572e+10	2.540656e-01	2.460275e-01	4.269666e+10	4.134584e+10
3.419984e-04	2.651167e-02	4.568028e+02	-5.615037e+05	3.098605e+12	1.316684e+03	3.800052e+10	3.677030e+10	2.541613e-01	2.459331e-01	3.800064e+10	3.677041e+10
3.621892e-04	2.718282e-02	4.462649e+02	-5.219159e+05	2.809672e+12	1.253794e+03	3.382479e+10	3.270431e+10	2.542592e-01	2.458366e-01	3.382489e+10	3.270441e+10
3.833924e-04	2.787095e-02	4.359778e+02	-4.851685e+05	2.547758e+12	1.193926e+03	3.011106e+10	2.909045e+10	2.543594e-01	2.457379e-01	3.011116e+10	2.909054e+10
4.056586e-04	2.857651e-02	4.259345e+02	-4.510555e+05	2.310327e+12	1.136934e+03	2.680767e+10	2.587797e+10	2.544619e-01	2.456370e-01	2.680776e+10	2.587805e+10
4.290405e-04	2.929993e-02	4.161285e+02	-4.193867e+05	2.095083e+12	1.082677e+03	2.386880e+10	2.302184e+10	2.545667e-01	2.455337e-01	2.386888e+10	2.302192e+10
4.535939e-04	3.004166e-02	4.065530e+02	-3.899843e+05	1.899947e+12	1.031025e+03	2.125379e+10	2.048219e+10	2.546740e-01	2.454282e-01	2.125386e+10	2.048225e+10
4.793770e-04	3.080217e-02	3.972019e+02	-3.626834e+05	1.723034e+12	9.818507e+02	1.892661e+10	1.822361e+10	2.547838e-01	2.453202e-01	1.892667e+10	1.822367e+10
5.064509e-04	3.158193e-02	3.880690e+02	-3.373314e+05	1.562638e+12	9.350346e+02	1.685525e+10	1.621473e+10	2.548961e-01	2.452097e-01	1.685531e+10	1.621479e+10
5.348801e-04	3.238143e-02	3.791483e+02	-3.137873e+05	1.417212e+12	8.904630e+02	1.501134e+10	1.442773e+10	2.550110e-01	2.450967e-01	1.501139e+10	1.442778e+10
5.647319e-04	3.320117e-02	3.704340e+02	-2.919209e+05	1.285354e+12	8.480274e+02	1.336967e+10	1.283791e+10	2.551286e-01	2.449811e-01	1.336972e+10	1.283795e+10
5.960770e-04	3.404166e-02	3.619203e+02	-2.716096e+05	1.165795e+12	8.076248e+02	1.190788e+10	1.142334e+10	2.552491e-01	2.448628e-01	1.190792e+10	1.142338e+10
6.289898e-04	3.490343e-02	3.536019e+02	-2.527411e+05	1.057385e+12	7.691572e+02	1.060609e+10	1.016459e+10	2.553723e-01	2.447418e-01	1.060613e+10	1.016462e+10
6.635483e-04	3.578701e-02	3.454734e+02	-2.352113e+05	9.590815e+11	7.325314e+02	9.446666e+09	9.044373e+09	2.554985e-01	2.446179e-01	9.446700e+09	9.044406e+09
6.998341e-04	3.669297e-02	3.375296e+02	-2.189228e+05	8.699398e+11	6.976588e+02	8.413925e+09	8.047368e+09	2.556277e-01	2.444912e-01	8.413956e+09	8.047398e+09
7.379332e-04	3.762185e-02	3.297655e+02	-2.037855e+05	7.891038e+11	6.644550e+02	7.493941e+09	7.159953e+09	2.557600e-01	2.443614e-01	7.493969e+09	7.159980e+09
7.779356e-04	3.857426e-02	3.221764e+02	-1.897160e+05	7.157981e+11	6.328398e+02	6.674337e+09	6.370036e+09	2.558956e-01	2.442286e-01	6.674362e+09	6.370060e+09
8.199359e-04	3.955077e-02	3.147576e+02	-1.766373e+05	6.493197e+11	6.027369e+02	5.944111e+09	5.666870e+09	2.560344e-01	2.440926e-01	5.944133e+09	5.666892e+09
8.640332e-04	4.055200e-02	3.075046e+02	-1.644780e+05	5.890312e+11	5.740737e+02	5.293479e+09	5.040907e+09	2.561766e-01	2.439534e-01	5.293500e+09	5.040926e+09
9.103316e-04	4.157858e-02	3.004129e+02	-1.531723e+05	5.343553e+11	5.467812e+02	4.713740e+09	4.483656e+09	2.563222e-01	2.438108e-01	4.713759e+09	4.483674e+09
9.589404e-04	4.263115e-02	2.934785e+02	-1.426580e+05	4.847683e+11	5.207935e+02	4.197152e+09	3.987570e+09	2.564715e-01	2.436648e-01	4.197168e+09	3.987586e+09
1.009974e-03	4.371036e-02	2.866973e+02	-1.328785e+05	4.397956e+11	4.960483e+02	3.736827e+09	3.545937e+09	2.566245e-01	2.435152e-01	3.736842e+09	3.545951e+09
1.063553e-03	4.481689e-02	2.800652e+02	-1.237809e+05	3.990070e+11	4.724858e+02	3.326637e+09	3.152788e+09	2.567813e-01	2.433620e-01	3.326651e+09	3.152801e+09
1.119802e-03	4.595144e-02	2.735788e+02	-1.153159e+05	3.620125e+11	4.500495e+02	2.961126e+09	2.802813e+09	2.569420e-01	2.432050e-01	2.961138e+09	2.802825e+09
1.178855e-03	4.711470e-02	2.672342e+02	-1.074385e+05	3.284585e+11	4.286854e+02	2.635435e+09	2.491288e+09	2.571068e-01	2.430441e-01	2.635446e+09	2.491298e+09
1.240850e-03	4.830742e-02	2.610281e+02	-1.001068e+05	2.980245e+11	4.083424e+02	2.345241e+09	2.214007e+09	2.572758e-01	2.428793e-01	2.345250e+09	2.214016e+09
1.305932e-03	4.953032e-02	2.549572e+02	-9.328125e+04	2.704197e+11	3.889714e+02	2.086687e+09	1.967226e+09	2.574491e-01	2.427104e-01	2.086696e+09	1.967234e+09
1.374254e-03	5.078419e-02	2.490182e+02	-8.692645e+04	2.453808e+11	3.705261e+02	1.856343e+09	1.747614e+09	2.576268e-01	2.425372e-01	1.856351e+09	1.747621e+09
1.445976e-03	5.206980e-02	2.432081e+02	-8.100877e+04	2.226686e+11	3.529621e+02	1.651148e+09	1.552202e+09	2.578091e-01	2.423597e-01	1.651155e+09	1.552208e+09
1.521266e-03	5.338795e-02	2.375239e+02	-7.549684e+04	2.020666e+11	3.362372e+02	1.468376e+09	1.378346e+09	2.579961e-01	2.421777e-01	1.468382e+09	1.378352e+09
1.600298e-03	5.473947e-02	2.319630e+02	-7.036263e+04	1.833783e+11	3.203115e+02	1.305597e+09	1.223693e+09	2.581879e-01	2.419911e-01	1.305603e+09	1.223699e+09
1.683259e-03	5.612521e-02	2.265225e+02	-6.557876e+04	1.664255e+11	3.051465e+02	1.160643e+09	1.086144e+09	2.583848e-01	2.417998e-01	1.160648e+09	1.086149e+09
1.770341e-03	5.754603e-02	2.212000e+02	-6.112085e+04	1.510467e+11	2.907061e+02	1.031582e+09	9.638306e+08	2.585868e-01	2.416036e-01	1.031586e+09	9.638346e+08
1.861746e-03	5.900281e-02	2.159930e+02	-5.696632e+04	1.370954e+11	2.769555e+02	9.166909e+08	8.550864e+08	2.587941e-01	2.414024e-01	9.166947e+08	8.550900e+08
1.957686e-03	6.049647e-02	2.108992e+02	-5.309369e+04	1.244387e+11	2.638617e+02	8.144321e+08	7.584267e+08	2.590069e-01	2.411960e-01	8.144355e+08	7.584298e+08
2.058386e-03	6.202795e-02	2.059162e+02	-4.948356e+04	1.129563e+11	2.513933e+02	7.234343e+08	6.725282e+08	2.592253e-01	2.409843e-01	7.234373e+08	6.725310e+08
2.164076e-03	6.359820e-02	2.010420e+02	-4.611766e+04	1.025389e+11	2.395205e+02	6.424739e+08	5.962111e+08	2.594495e-01	2.407672e-01	6.424765e+08	5.962135e+08
2.275003e-03	6.520819e-02	1.962744e+02	-4.297931e+04	9.308733e+10	2.282148e+02	5.704591e+08	5.284236e+08	2.596796e-01	2.405446e-01	5.704614e+08	5.284257e+08
2.391422e-03	6.685894e-02	1.916116e+02	-4.005271e+04	8.451184e+10	2.174489e+02	5.064157e+08	4.682280e+08	2.599158e-01	2.403162e-01	5.064177e+08	4.682298e+08
2.513601e-03	6.855149e-02	1.870514e+02	-3.732331e+04	7.673093e+10	2.071971e+02	4.494744e+08	4.147884e+08	2.601583e-01	2.400819e-01	4.494762e+08	4.147900e+08
2.641821e-03	7.028688e-02	1.825921e+02	-3.477887e+04	6.967074e+10	1.974348e+02	3.988599e+08	3.673598e+08	2.604073e-01	2.398416e-01	3.988614e+08	3.673612e+08
2.776377e-03	7.206620e-02	1.782318e+02	-3.240495e+04	6.326410e+10	1.881383e+02	3.538786e+08	3.252767e+08	2.606629e-01	2.395951e-01	3.538799e+08	3.252779e+08
2.917577e-03	7.389056e-02	1.739688e+02	-3.019121e+04	5.745039e+10	1.792854e+02	3.139143e+08	2.879482e+08	2.609252e-01	2.393423e-01	3.139154e+08	2.879493e+08
3.065744e-03	7.576111e-02	1.698013e+02	-2.812682e+04	5.217445e+10	1.708549e+02	2.784157e+08	2.548463e+08	2.611946e-01	2.390830e-01	2.784167e+08	2.548472e+08
3.221217e-03	7.767901e-02	1.657277e+02	-2.620132e+04	4.738627e+10	1.628264e+02	2.468913e+08	2.255005e+08	2.614711e-01	2.388170e-01	2.468922e+08	2.255012e+08
3.384351e-03	7.964546e-02	1.617463e+02	-2.440591e+04	4.304055e+10	1.551806e+02	2.189030e+08	1.994922e+08	2.617549e-01	2.385443e-01	2.189037e+08	1.994928e+08
3.555516e-03	8.166170e-02	1.578555e+02	-2.273153e+04	3.909615e+10	1.478991e+02	1.940597e+08	1.764480e+08	2.620463e-01	2.382646e-01	1.940603e+08	1.764486e+08
3.735101e-03	8.372897e-02	1.540537e+02	-2.116980e+04	3.551580e+10	1.409643e+02	1.720131e+08	1.560360e+08	2.623453e-01	2.379778e-01	1.720136e+08	1.560364e+08
3.923514e-03	8.584858e-02	1.503393e+02	-1.971389e+04	3.226572e+10	1.343598e+02	1.524532e+08	1.379606e+08	2.626523e-01	2.376838e-01	1.524536e+08	1.379609e+08
4.121181e-03	8.802185e-02	1.467109e+02	-1.835617e+04	2.931522e+10	1.280693e+02	1.351030e+08	1.219584e+08	2.629673e-01	2.373823e-01	1.351033e+08	1.219587e+08
4.328550e-03	9.025013e-02	1.431669e+02	-1.709027e+04	2.663653e+10	1.220780e+02	1.197163e+08	1.077954e+08	2.632906e-01	2.370732e-01	1.197165e+08	1.077957e+08
4.546087e-03	9.253483e-02	1.397059e+02	-1.591004e+04	2.420443e+10	1.163713e+02	1.060736e+08	9.526355e+07	2.636224e-01	2.367564e-01	1.060738e+08	9.526373e+07
4.774284e-03	9.487736e-02	1.363264e+02	-1.480977e+04	2.199605e+10	1.109356e+02	9.397967e+07	8.417768e+07	2.639628e-01	2.364317e-01	9.397982e+07	8.417782e+07
5.013653e-03	9.727919e-02	1.330269e+02	-1.378409e+04	1.999068e+10	1.057578e+02	8.326068e+07	7.437332e+07	2.643120e-01	2.360990e-01	8.326079e+07	7.437341e+07
5.264731e-03	9.974182e-02	1.298060e+02	-1.282826e+04	1.816950e+10	1.008254e+02	7.376201e+07	6.570433e+07	2.646704e-01	2.357581e-01	7.376207e+07	6.570439e+07
5.528083e-03	1.022668e-01	1.266622e+02	-1.193750e+04	1.651548e+10	9.612670e+01	6.534598e+07	5.804082e+07	2.650379e-01	2.354088e-01	6.534600e+07	5.804084e+07
5.804297e-03	1.048557e-01	1.235941e+02	-1.110768e+04	1.501315e+10	9.165040e+01	5.789025e+07	5.126751e+07	2.654149e-01	2.350510e-01	5.789025e+07	5.126751e+07
6.093991e-03	1.075101e-01	1.206003e+02	-1.033462e+04	1.364849e+10	8.738580e+01	5.128601e+07	4.528204e+07	2.658015e-01	2.346845e-01	5.128598e+07	4.528201e+07
6.397836e-03	1.102318e-01	1.176790e+02	-9.614157e+03	1.240674e+10	8.331581e+01	4.543665e+07	3.999364e+07	2.661979e-01	2.343092e-01	4.543660e+07	3.999360e+07
6.716481e-03	1.130223e-01	1.148291e+02	-8.943980e+03	1.128106e+10	7.944627e+01	4.025612e+07	3.532165e+07	2.666044e-01	2.339249e-01	4.025605e+07	3.532159e+07
7.050634e-03	1.158835e-01	1.121916e+02	-7.893032e+03	1.025818e+10	7.575889e+01	3.566855e+07	3.119484e+07	2.670226e-01	2.335301e-01	3.566828e+07	3.119493e+07
7.400782e-03	1.188171e-01	1.093878e+02	-8.007368e+03	9.342469e+09	7.229851e+01	3.155478e+07	2.773143e+07	2.674427e-01	2.331344e-01	3.180795e+07	2.750430e+07
7.768285e-03	1.218249e-01	1.068850e+02	-6.810432e+03	8.480875e+09	6.888407e+01	2.791326e+07	2.439048e+07	2.678963e-01	2.327075e-01	2.807444e+07	2.424634e+07
8.153307e-03	1.249090e-01	1.042874e+02	-6.746497e+03	7.726663e+09	6.574981e+01	2.471030e+07	2.169067e+07	2.683380e-01	2.322927e-01	2.504897e+07	2.138874e+07
8.557129e-03	1.280710e-01	1.018258e+02	-6.095827e+03	7.023988e+09	6.268886e+01	2.187954e+07	1.914494e+07	2.688084e-01	2.318514e-01	2.218846e+07	1.887046e+07
8.980406e-03	1.313132e-01	9.938296e+01	-5.771281e+03	6.393105e+09	5.980733e+01	1.937973e+07	1.695944e+07	2.692826e-01	2.314075e-01	1.972563e+07	1.665307e+07
9.424198e-03	1.346374e-01	9.702068e+01	-5.322954e+03	5.815742e+09	5.704283e+01	1.716964e+07	1.499214e+07	2.697737e-01	2.309483e-01	1.750227e+07	1.469852e+07
9.889397e-03	1.380457e-01	9.470529e+01	-4.977203e+03	5.292808e+09	5.441787e+01	1.521555e+07	1.326783e+07	2.702746e-01	2.304810e-01	1.554767e+07	1.297564e+07
1.037706e-02	1.415404e-01	9.245185e+01	-4.620903e+03	4.816448e+09	5.191130e+01	1.348695e+07	1.173533e+07	2.707895e-01	2.300013e-01	1.380520e+07	1.145632e+07
1.088823e-02	1.451235e-01	9.025191e+01	-4.303761e+03	4.383658e+09	4.952412e+01	1.195745e+07	1.038318e+07	2.713165e-01	2.295112e-01	1.226295e+07	1.011628e+07
1.142403e-02	1.487973e-01	8.810865e+01	-4.000118e+03	3.989858e+09	4.724732e+01	1.060371e+07	9.186265e+06	2.718571e-01	2.290095e-01	1.089339e+07	8.934085e+06
1.198562e-02	1.525641e-01	8.601955e+01	-3.719925e+03	3.631746e+09	4.507712e+01	9.405283e+06	8.128939e+06	2.724108e-01	2.284966e-01	9.679576e+06	7.891021e+06
1.257424e-02	1.564263e-01	8.398479e+01	-3.456844e+03	3.305939e+09	4.300767e+01	8.344154e+06	7.194320e+06	2.729781e-01	2.279721e-01	8.603029e+06	6.970609e+06
1.319116e-02	1.603863e-01	8.200274e+01	-3.212794e+03	3.009552e+09	4.103452e+01	7.404448e+06	6.368673e+06	2.735591e-01	2.274359e-01	7.648736e+06	6.158361e+06
1.383773e-02	1.644465e-01	8.007256e+01	-2.985272e+03	2.739877e+09	3.915291e+01	6.572131e+06	5.639081e+06	2.741542e-01	2.268879e-01	6.802506e+06	5.441504e+06
1.451536e-02	1.686094e-01	7.819246e+01	-2.774549e+03	2.494514e+09	3.735868e+01	5.834830e+06	4.994410e+06	2.747637e-01	2.263279e-01	6.052093e+06	4.808811e+06
1.522551e-02	1.728778e-01	7.636113e+01	-2.578795e+03	2.271244e+09	3.564761e+01	5.181574e+06	4.424532e+06	2.753878e-01	2.257556e-01	5.386313e+06	4.250327e+06
1.596972e-02	1.772542e-01	7.457698e+01	-2.397352e+03	2.068079e+09	3.401591e+01	4.602661e+06	3.920665e+06	2.760271e-01	2.251707e-01	4.795450e+06	3.757293e+06
1.674961e-02	1.817415e-01	7.283816e+01	-2.229576e+03	1.883202e+09	3.245988e+01	4.089524e+06	3.474994e+06	2.766820e-01	2.245730e-01	4.270836e+06	3.321994e+06
1.756686e-02	1.863423e-01	7.114307e+01	-2.074130e+03	1.714946e+09	3.097589e+01	3.634573e+06	3.080581e+06	2.773530e-01	2.239619e-01	3.804747e+06	2.937592e+06
1.842325e-02	1.910595e-01	6.949060e+01	-1.929595e+03	1.561801e+09	2.956047e+01	3.231081e+06	2.731389e+06	2.780406e-01	2.233372e-01	3.390452e+06	2.598058e+06
1.932061e-02	1.958962e-01	6.787965e+01	-1.795196e+03	1.422405e+09	2.821046e+01	2.873140e+06	2.422189e+06	2.787451e-01	2.226987e-01	3.022111e+06	2.298116e+06
2.026090e-02	2.008554e-01	6.630888e+01	-1.670521e+03	1.295512e+09	2.692274e+01	2.555502e+06	2.148360e+06	2.794671e-01	2.220460e-01	2.694548e+06	2.033084e+06
2.124615e-02	2.059400e-01	6.477848e+01	-1.553309e+03	1.179970e+09	2.569413e+01	2.273557e+06	1.905777e+06	2.802069e-01	2.213788e-01	2.403129e+06	1.798855e+06
2.227850e-02	2.111534e-01	6.328805e+01	-1.443729e+03	1.074763e+09	2.452194e+01	2.023238e+06	1.691011e+06	2.809648e-01	2.206972e-01	2.144005e+06	1.591831e+06
2.336019e-02	2.164988e-01	6.183756e+01	-1.340949e+03	9.789434e+08	2.340331e+01	1.800957e+06	1.500911e+06	2.817409e-01	2.200011e-01	1.913624e+06	1.408836e+06
2.449358e-02	2.219795e-01	6.042734e+01	-1.244248e+03	8.916581e+08	2.233560e+01	1.603567e+06	1.332715e+06	2.825355e-01	2.192904e-01	1.708867e+06	1.247084e+06
2.568117e-02	2.275990e-01	5.905714e+01	-1.153763e+03	8.121423e+08	2.131643e+01	1.428239e+06	1.183994e+06	2.833485e-01	2.185654e-01	1.526983e+06	1.104099e+06
2.692566e-02	2.333606e-01	5.775662e+01	-1.045020e+03	7.395699e+08	2.034174e+01	1.272472e+06	1.052518e+06	2.841801e-01	2.178259e-01	1.365435e+06	9.776874e+05
