t[s]	x	Tg[10^9K]	dTg/dt[10^9K/s]	rho_tot[g cm^-3]	H[s^-1]	n nue->p e	p e->n nue	n->p e nue	p e nue->n	n e->p nue	p nue->n e
3.736227e-04	1.025315e-01	1.131798e+02	-7.668596e+03	8.205340e+09	6.775585e+01	3.757178e+07	3.290570e+07	2.668212e-01	2.336844e-01	3.757129e+07	3.290527e+07
7.664014e-04	1.051271e-01	1.103854e+02	-7.114490e+03	7.424499e+09	6.445136e+01	3.321128e+07	2.898925e+07	2.672524e-01	2.332777e-01	3.321081e+07	2.898885e+07
1.179318e-03	1.077884e-01	1.076600e+02	-6.600422e+03	6.717965e+09	6.130803e+01	2.935803e+07	2.553781e+07	2.676949e-01	2.328610e-01	2.935759e+07	2.553742e+07
1.613406e-03	1.105171e-01	1.050019e+02	-6.123498e+03	6.078666e+09	5.831800e+01	2.595292e+07	2.249625e+07	2.681488e-01	2.324341e-01	2.595250e+07	2.249589e+07
2.069750e-03	1.133148e-01	1.024094e+02	-5.681036e+03	5.500204e+09	5.547380e+01	2.294372e+07	1.981602e+07	2.686145e-01	2.319968e-01	2.294333e+07	1.981568e+07
2.549491e-03	1.161834e-01	9.988086e+01	-5.270544e+03	4.976791e+09	5.276831e+01	2.028431e+07	1.745427e+07	2.690923e-01	2.315488e-01	2.028394e+07	1.745395e+07
3.053828e-03	1.191246e-01	9.741479e+01	-4.889713e+03	4.503186e+09	5.019477e+01	1.793395e+07	1.537324e+07	2.695826e-01	2.310899e-01	1.793360e+07	1.537293e+07
3.584024e-03	1.221403e-01	9.500961e+01	-4.536399e+03	4.074651e+09	4.774674e+01	1.585665e+07	1.353963e+07	2.700856e-01	2.306199e-01	1.585632e+07	1.353935e+07
4.141404e-03	1.252323e-01	9.266381e+01	-4.208615e+03	3.686897e+09	4.541810e+01	1.402061e+07	1.192410e+07	2.706017e-01	2.301385e-01	1.402030e+07	1.192383e+07
4.727361e-03	1.284025e-01	9.037594e+01	-3.904515e+03	3.336042e+09	4.320304e+01	1.239776e+07	1.050077e+07	2.711313e-01	2.296453e-01	1.239746e+07	1.050052e+07
5.343360e-03	1.316531e-01	8.814455e+01	-3.622388e+03	3.018576e+09	4.109600e+01	1.096329e+07	9.246831e+06	2.716747e-01	2.291403e-01	1.096300e+07	9.246590e+06
5.990943e-03	1.349859e-01	8.596825e+01	-3.360647e+03	2.731321e+09	3.909172e+01	9.695268e+06	8.142167e+06	2.722323e-01	2.286230e-01	9.694997e+06	8.141939e+06
6.671728e-03	1.384031e-01	8.384569e+01	-3.117819e+03	2.471401e+09	3.718520e+01	8.574347e+06	7.169054e+06	2.728044e-01	2.280931e-01	8.574090e+06	7.168839e+06
7.387417e-03	1.419068e-01	8.177553e+01	-2.892536e+03	2.236216e+09	3.537165e+01	7.583417e+06	6.311866e+06	2.733915e-01	2.275506e-01	7.583173e+06	6.311663e+06
8.139801e-03	1.454991e-01	7.975648e+01	-2.683531e+03	2.023412e+09	3.364656e+01	6.707367e+06	5.556830e+06	2.739940e-01	2.269949e-01	6.707136e+06	5.556638e+06
8.930760e-03	1.491825e-01	7.778729e+01	-2.489629e+03	1.830859e+09	3.200560e+01	5.932845e+06	4.891805e+06	2.746122e-01	2.264258e-01	5.932625e+06	4.891624e+06
9.762273e-03	1.529590e-01	7.586671e+01	-2.309737e+03	1.656630e+09	3.044467e+01	5.248053e+06	4.306090e+06	2.752466e-01	2.258431e-01	5.247844e+06	4.305918e+06
1.063642e-02	1.568312e-01	7.399356e+01	-2.142843e+03	1.498981e+09	2.895986e+01	4.642568e+06	3.790253e+06	2.758976e-01	2.252464e-01	4.642370e+06	3.790091e+06
1.155538e-02	1.608014e-01	7.216665e+01	-1.988009e+03	1.356334e+09	2.754747e+01	4.107181e+06	3.335983e+06	2.765657e-01	2.246354e-01	4.106992e+06	3.335829e+06
1.252146e-02	1.648721e-01	7.038485e+01	-1.844362e+03	1.227261e+09	2.620397e+01	3.633754e+06	2.935952e+06	2.772513e-01	2.240098e-01	3.633574e+06	2.935807e+06
1.353707e-02	1.690459e-01	6.864704e+01	-1.711095e+03	1.110472e+09	2.492598e+01	3.215095e+06	2.583705e+06	2.779549e-01	2.233693e-01	3.214924e+06	2.583568e+06
1.460476e-02	1.733253e-01	6.695214e+01	-1.587457e+03	1.004797e+09	2.371033e+01	2.844850e+06	2.273552e+06	2.786770e-01	2.227135e-01	2.844688e+06	2.273422e+06
1.572718e-02	1.777131e-01	6.529909e+01	-1.472753e+03	9.091776e+08	2.255396e+01	2.517404e+06	2.000478e+06	2.794181e-01	2.220421e-01	2.517249e+06	2.000355e+06
1.690715e-02	1.822119e-01	6.368685e+01	-1.366337e+03	8.226579e+08	2.145399e+01	2.227793e+06	1.760066e+06	2.801786e-01	2.213548e-01	2.227646e+06	1.759950e+06
1.814762e-02	1.868246e-01	6.211441e+01	-1.267610e+03	7.443717e+08	2.040767e+01	1.971633e+06	1.548422e+06	2.809592e-01	2.206512e-01	1.971494e+06	1.548312e+06
1.945169e-02	1.915541e-01	6.058080e+01	-1.176017e+03	6.735354e+08	1.941238e+01	1.745048e+06	1.362115e+06	2.817603e-01	2.199310e-01	1.744915e+06	1.362011e+06
2.082263e-02	1.964033e-01	5.908506e+01	-1.091042e+03	6.094400e+08	1.846562e+01	1.544611e+06	1.198124e+06	2.825826e-01	2.191938e-01	1.544484e+06	1.198026e+06
2.226402e-02	2.013753e-01	5.762708e+01	-1.011502e+03	5.513121e+08	1.756294e+01	1.367294e+06	1.053785e+06	2.834265e-01	2.184392e-01	1.367174e+06	1.053692e+06
2.377928e-02	2.064731e-01	5.620487e+01	-9.385903e+02	4.988701e+08	1.670676e+01	1.210509e+06	9.268220e+05	2.842922e-01	2.176674e-01	1.210394e+06	9.267341e+05
2.537223e-02	2.117000e-01	5.481748e+01	-8.709610e+02	4.514010e+08	1.589204e+01	1.071709e+06	8.150656e+05	2.851810e-01	2.168772e-01	1.071653e+06	8.149396e+05
2.704684e-02	2.170592e-01	5.346513e+01	-8.075613e+02	4.084445e+08	1.511698e+01	9.489006e+05	7.166983e+05	2.860934e-01	2.160685e-01	9.488644e+05	7.165653e+05
2.880729e-02	2.225541e-01	5.214556e+01	-7.495651e+02	3.695874e+08	1.437994e+01	8.402356e+05	6.301903e+05	2.870296e-01	2.152412e-01	8.402712e+05	6.300087e+05
3.065799e-02	2.281881e-01	5.085878e+01	-6.952922e+02	3.344196e+08	1.367868e+01	7.440776e+05	5.540369e+05	2.879909e-01	2.143944e-01	7.441247e+05	5.538548e+05
3.260355e-02	2.339647e-01	4.960371e+01	-6.450948e+02	3.026009e+08	1.301169e+01	6.589803e+05	4.870477e+05	2.889776e-01	2.135281e-01	6.590477e+05	4.868576e+05
3.464886e-02	2.398875e-01	4.837965e+01	-5.984745e+02	2.738092e+08	1.237720e+01	5.836661e+05	4.281108e+05	2.899904e-01	2.126417e-01	5.837432e+05	4.279210e+05
3.679900e-02	2.459603e-01	4.718581e+01	-5.552344e+02	2.477574e+08	1.177367e+01	5.170054e+05	3.762670e+05	2.910301e-01	2.117349e-01	5.170894e+05	3.760792e+05
3.905937e-02	2.521868e-01	4.602146e+01	-5.151172e+02	2.241845e+08	1.119957e+01	4.579995e+05	3.306655e+05	2.920974e-01	2.108073e-01	4.580871e+05	3.304820e+05
4.143560e-02	2.585710e-01	4.488586e+01	-4.778974e+02	2.028546e+08	1.065347e+01	4.057653e+05	2.905583e+05	2.931930e-01	2.098584e-01	4.058542e+05	2.903806e+05
4.393364e-02	2.651167e-01	4.377831e+01	-4.433662e+02	1.835543e+08	1.013400e+01	3.595222e+05	2.552867e+05	2.943177e-01	2.088878e-01	3.596108e+05	2.551157e+05
4.655973e-02	2.718282e-01	4.269813e+01	-4.113296e+02	1.660905e+08	9.639865e+00	3.185798e+05	2.242706e+05	2.954723e-01	2.078952e-01	3.186669e+05	2.241067e+05
4.932043e-02	2.787095e-01	4.164463e+01	-3.816073e+02	1.502885e+08	9.169831e+00	2.823276e+05	1.969992e+05	2.966576e-01	2.068802e-01	2.824124e+05	1.968428e+05
5.222263e-02	2.857651e-01	4.061715e+01	-3.540323e+02	1.359900e+08	8.722720e+00	2.502256e+05	1.730227e+05	2.978744e-01	2.058422e-01	2.503077e+05	1.728738e+05
5.527360e-02	2.929993e-01	3.961506e+01	-3.284495e+02	1.230520e+08	8.297415e+00	2.217964e+05	1.519451e+05	2.991236e-01	2.047809e-01	2.218754e+05	1.518038e+05
5.848094e-02	3.004166e-01	3.863774e+01	-3.047149e+02	1.113451e+08	7.892853e+00	1.966176e+05	1.334180e+05	3.004060e-01	2.036959e-01	1.966934e+05	1.332840e+05
6.185269e-02	3.080217e-01	3.768456e+01	-2.826952e+02	1.007521e+08	7.508020e+00	1.743157e+05	1.171343e+05	3.017225e-01	2.025867e-01	1.743882e+05	1.170074e+05
6.539725e-02	3.158193e-01	3.675494e+01	-2.622663e+02	9.116695e+07	7.141957e+00	1.545602e+05	1.028240e+05	3.030741e-01	2.014529e-01	1.546295e+05	1.027040e+05
6.912349e-02	3.238143e-01	3.584830e+01	-2.433135e+02	8.249386e+07	6.793746e+00	1.370588e+05	9.024939e+04	3.044617e-01	2.002942e-01	1.371248e+05	9.013589e+04
7.304071e-02	3.320117e-01	3.496406e+01	-2.257300e+02	7.464598e+07	6.462517e+00	1.215529e+05	7.920114e+04	3.058862e-01	1.991100e-01	1.216157e+05	7.909391e+04
7.715870e-02	3.404166e-01	3.410169e+01	-2.094169e+02	6.754481e+07	6.147443e+00	1.078137e+05	6.949516e+04	3.073487e-01	1.978999e-01	1.078734e+05	6.939388e+04
8.148775e-02	3.490343e-01	3.326063e+01	-1.942826e+02	6.111928e+07	5.847734e+00	9.563865e+04	6.096939e+04	3.088502e-01	1.966636e-01	9.569547e+04	6.087377e+04
8.603867e-02	3.578701e-01	3.244036e+01	-1.802417e+02	5.530511e+07	5.562642e+00	8.484869e+04	5.348125e+04	3.103917e-01	1.954006e-01	8.490271e+04	5.339099e+04
9.082282e-02	3.669297e-01	3.164038e+01	-1.672153e+02	5.004413e+07	5.291454e+00	7.528527e+04	4.690529e+04	3.119743e-01	1.941105e-01	7.533661e+04	4.682012e+04
9.585216e-02	3.762185e-01	3.086018e+01	-1.551302e+02	4.528369e+07	5.033492e+00	6.680810e+04	4.113115e+04	3.135990e-01	1.927928e-01	6.685690e+04	4.105079e+04
1.011392e-01	3.857426e-01	3.009927e+01	-1.439183e+02	4.097617e+07	4.788110e+00	5.929302e+04	3.606175e+04	3.152671e-01	1.914473e-01	5.933941e+04	3.598593e+04
1.066973e-01	3.955077e-01	2.935718e+01	-1.335165e+02	3.707847e+07	4.554696e+00	5.263013e+04	3.161168e+04	3.169796e-01	1.900734e-01	5.267423e+04	3.154016e+04
1.125401e-01	4.055200e-01	2.863345e+01	-1.238663e+02	3.355160e+07	4.332665e+00	4.672216e+04	2.770584e+04	3.187378e-01	1.886707e-01	4.676408e+04	2.763838e+04
1.186824e-01	4.157858e-01	2.792762e+01	-1.149134e+02	3.036028e+07	4.121462e+00	4.148298e+04	2.427816e+04	3.205428e-01	1.872390e-01	4.152285e+04	2.421454e+04
1.251394e-01	4.263115e-01	2.723925e+01	-1.066075e+02	2.747257e+07	3.920560e+00	3.683637e+04	2.127057e+04	3.223960e-01	1.857778e-01	3.687428e+04	2.121057e+04
1.319273e-01	4.371036e-01	2.656792e+01	-9.890169e+01	2.485958e+07	3.729455e+00	3.271483e+04	1.863197e+04	3.242984e-01	1.842867e-01	3.275089e+04	1.857540e+04
1.390630e-01	4.481689e-01	2.591320e+01	-9.175273e+01	2.249519e+07	3.547671e+00	2.905860e+04	1.631747e+04	3.262515e-01	1.827654e-01	2.909289e+04	1.626413e+04
1.465643e-01	4.595144e-01	2.527468e+01	-8.512035e+01	2.035573e+07	3.374751e+00	2.581475e+04	1.428758e+04	3.282566e-01	1.812135e-01	2.584737e+04	1.423731e+04
1.544500e-01	4.711470e-01	2.465197e+01	-7.896723e+01	1.841980e+07	3.210265e+00	2.293642e+04	1.250761e+04	3.303150e-01	1.796308e-01	2.296745e+04	1.246023e+04
1.627397e-01	4.830742e-01	2.404468e+01	-7.325876e+01	1.666804e+07	3.053801e+00	2.038211e+04	1.094705e+04	3.324281e-01	1.780168e-01	2.041162e+04	1.090241e+04
1.714541e-01	4.953032e-01	2.345242e+01	-6.796279e+01	1.508292e+07	2.904967e+00	1.811504e+04	9.579091e+03	3.345972e-01	1.763714e-01	1.814311e+04	9.537043e+03
1.806150e-01	5.078419e-01	2.287483e+01	-6.304953e+01	1.364859e+07	2.763391e+00	1.610266e+04	8.380188e+03	3.368240e-01	1.746942e-01	1.612936e+04	8.340591e+03
1.902452e-01	5.206980e-01	2.231155e+01	-5.849133e+01	1.235070e+07	2.628720e+00	1.431612e+04	7.329641e+03	3.391097e-01	1.729849e-01	1.434151e+04	7.292361e+03
2.003688e-01	5.338795e-01	2.176222e+01	-5.426253e+01	1.117628e+07	2.500617e+00	1.272986e+04	6.409267e+03	3.414559e-01	1.712434e-01	1.275400e+04	6.374181e+03
2.110109e-01	5.473947e-01	2.122650e+01	-5.033934e+01	1.011357e+07	2.378761e+00	1.132124e+04	5.603096e+03	3.438642e-01	1.694695e-01	1.134418e+04	5.570085e+03
2.221982e-01	5.612521e-01	2.070406e+01	-4.669966e+01	9.151945e+06	2.262847e+00	1.007018e+04	4.897099e+03	3.463360e-01	1.676629e-01	1.009198e+04	4.866051e+03
2.339585e-01	5.754603e-01	2.019457e+01	-4.332303e+01	8.281789e+06	2.152586e+00	8.958899e+03	4.278957e+03	3.488729e-01	1.658235e-01	8.979609e+03	4.249767e+03
2.463212e-01	5.900281e-01	1.969770e+01	-4.019043e+01	7.494399e+06	2.047703e+00	7.971644e+03	3.737852e+03	3.514766e-01	1.639512e-01	7.991310e+03	3.710420e+03
2.593171e-01	6.049647e-01	1.921316e+01	-3.728423e+01	6.781901e+06	1.947934e+00	7.094439e+03	3.264287e+03	3.541486e-01	1.620459e-01	7.113107e+03	3.238519e+03
2.729786e-01	6.202795e-01	1.874064e+01	-3.458807e+01	6.137170e+06	1.853031e+00	6.314900e+03	2.849926e+03	3.568907e-01	1.601075e-01	6.332611e+03	2.825731e+03
2.873397e-01	6.359820e-01	1.827984e+01	-3.208677e+01	5.553760e+06	1.762755e+00	5.622046e+03	2.487451e+03	3.597044e-01	1.581361e-01	5.638842e+03	2.464744e+03
3.024362e-01	6.520819e-01	1.783047e+01	-2.976627e+01	5.025836e+06	1.676882e+00	5.006142e+03	2.170439e+03	3.625914e-01	1.561317e-01	5.022062e+03	2.149141e+03
3.183058e-01	6.685894e-01	1.739225e+01	-2.761348e+01	4.548119e+06	1.595197e+00	4.458555e+03	1.893258e+03	3.655536e-01	1.540944e-01	4.473636e+03	1.873290e+03
3.349880e-01	6.855149e-01	1.696492e+01	-2.561630e+01	4.115834e+06	1.517496e+00	3.971628e+03	1.650963e+03	3.685925e-01	1.520242e-01	3.985906e+03	1.632253e+03
3.525243e-01	7.028688e-01	1.654820e+01	-2.376348e+01	3.724659e+06	1.443583e+00	3.538570e+03	1.439218e+03	3.717099e-01	1.499214e-01	3.552080e+03	1.421696e+03
3.709584e-01	7.206620e-01	1.614182e+01	-2.204459e+01	3.370683e+06	1.373275e+00	3.153357e+03	1.254221e+03	3.749077e-01	1.477862e-01	3.166131e+03	1.237822e+03
3.903363e-01	7.389056e-01	1.574555e+01	-2.044995e+01	3.050367e+06	1.306395e+00	2.810646e+03	1.092636e+03	3.781874e-01	1.456188e-01	2.822716e+03	1.077298e+03
4.107061e-01	7.576111e-01	1.535912e+01	-1.897058e+01	2.760510e+06	1.242777e+00	2.505693e+03	9.515410e+02	3.815510e-01	1.434196e-01	2.517089e+03	9.372037e+02
4.321185e-01	7.767901e-01	1.498230e+01	-1.759816e+01	2.498214e+06	1.182261e+00	2.234291e+03	8.283728e+02	3.850001e-01	1.411891e-01	2.245043e+03	8.149794e+02
4.546270e-01	7.964546e-01	1.461485e+01	-1.632495e+01	2.260857e+06	1.124696e+00	1.992705e+03	7.208858e+02	3.885366e-01	1.389276e-01	2.002843e+03	7.083824e+02
4.782873e-01	8.166170e-01	1.425654e+01	-1.514379e+01	2.046067e+06	1.069938e+00	1.777622e+03	6.271121e+02	3.921621e-01	1.366358e-01	1.787171e+03	6.154475e+02
5.031585e-01	8.372897e-01	1.390715e+01	-1.404802e+01	1.851699e+06	1.017850e+00	1.586097e+03	5.453279e+02	3.958786e-01	1.343142e-01	1.595085e+03	5.344532e+02
5.293023e-01	8.584858e-01	1.356646e+01	-1.303148e+01	1.675809e+06	9.683017e-01	1.415520e+03	4.740232e+02	3.996876e-01	1.319636e-01	1.423972e+03	4.638920e+02
5.567838e-01	8.802185e-01	1.323425e+01	-1.208843e+01	1.516639e+06	9.211697e-01	1.263568e+03	4.118759e+02	4.035910e-01	1.295846e-01	1.271510e+03	4.024442e+02
5.856713e-01	9.025013e-01	1.291032e+01	-1.121357e+01	1.372601e+06	8.763359e-01	1.128184e+03	3.577284e+02	4.075904e-01	1.271782e-01	1.135639e+03	3.489543e+02
6.160365e-01	9.253483e-01	1.259446e+01	-1.040197e+01	1.242254e+06	8.336882e-01	1.007536e+03	3.105675e+02	4.116875e-01	1.247452e-01	1.014528e+03	3.024112e+02
6.479549e-01	9.487736e-01	1.228648e+01	-9.649050e+00	1.124296e+06	7.931199e-01	8.999993e+02	2.695066e+02	4.158840e-01	1.222867e-01	9.065503e+02	2.619303e+02
6.815058e-01	9.727919e-01	1.198618e+01	-8.950580e+00	1.017550e+06	7.545297e-01	8.041294e+02	2.337698e+02	4.201814e-01	1.198038e-01	8.102612e+02	2.267378e+02
7.167724e-01	9.974182e-01	1.169337e+01	-8.302620e+00	9.209485e+05	7.178210e-01	7.186431e+02	2.026788e+02	4.245813e-01	1.172977e-01	7.243765e+02	1.961571e+02
7.538423e-01	1.022668e+00	1.140788e+01	-7.701520e+00	8.335275e+05	6.829021e-01	6.423998e+02	1.756401e+02	4.290853e-01	1.147697e-01	6.477549e+02	1.695967e+02
7.928075e-01	1.048557e+00	1.112952e+01	-7.143894e+00	7.544138e+05	6.496857e-01	5.743858e+02	1.521351e+02	4.336946e-01	1.122211e-01	5.793821e+02	1.465395e+02
8.337646e-01	1.075101e+00	1.085811e+01	-6.626598e+00	6.828176e+05	6.180887e-01	5.136998e+02	1.317103e+02	4.384108e-01	1.096536e-01	5.183559e+02	1.265338e+02
8.768152e-01	1.102318e+00	1.059349e+01	-6.146718e+00	6.180239e+05	5.880322e-01	4.595404e+02	1.139698e+02	4.432350e-01	1.070685e-01	4.638745e+02	1.091850e+02
9.220659e-01	1.130223e+00	1.033549e+01	-5.701550e+00	5.593861e+05	5.594410e-01	4.111952e+02	9.856749e+01	4.481684e-01	1.044677e-01	4.152245e+02	9.414865e+01
9.696289e-01	1.158835e+00	1.008395e+01	-5.288583e+00	5.063187e+05	5.322436e-01	3.680303e+02	8.520119e+01	4.532123e-01	1.018529e-01	3.717715e+02	8.112391e+01
1.019622e+00	1.188171e+00	9.838710e+00	-4.905492e+00	4.582923e+05	5.063721e-01	3.294819e+02	7.360713e+01	4.583674e-01	9.922609e-02	3.329509e+02	6.984845e+01
1.072169e+00	1.218249e+00	9.599615e+00	-4.550116e+00	4.148276e+05	4.817618e-01	2.950483e+02	6.355510e+01	4.636348e-01	9.658914e-02	2.982605e+02	6.009336e+01
1.127400e+00	1.249090e+00	9.366516e+00	-4.220452e+00	3.754909e+05	4.583510e-01	2.642832e+02	5.484428e+01	4.690151e-01	9.394417e-02	2.672533e+02	5.165900e+01
1.185451e+00	1.280710e+00	9.139266e+00	-3.914640e+00	3.398899e+05	4.360814e-01	2.367892e+02	4.729948e+01	4.745089e-01	9.129340e-02	2.395313e+02	4.437140e+01
1.246467e+00	1.313132e+00	8.917721e+00	-3.630958e+00	3.076694e+05	4.148973e-01	2.122128e+02	4.076800e+01	4.801167e-01	8.863910e-02	2.147403e+02	3.807898e+01
1.310597e+00	1.346374e+00	8.701743e+00	-3.367805e+00	2.785081e+05	3.947457e-01	1.902390e+02	3.511672e+01	4.858387e-01	8.598364e-02	1.925648e+02	3.264974e+01
1.378000e+00	1.380457e+00	8.491196e+00	-3.123696e+00	2.521153e+05	3.755762e-01	1.705873e+02	3.022969e+01	4.916751e-01	8.332948e-02	1.727237e+02	2.796874e+01
1.448843e+00	1.415404e+00	8.285945e+00	-2.897256e+00	2.282278e+05	3.573409e-01	1.530082e+02	2.600590e+01	4.976257e-01	8.067918e-02	1.549668e+02	2.393594e+01
1.523301e+00	1.451235e+00	8.085863e+00	-2.687207e+00	2.066076e+05	3.399943e-01	1.372790e+02	2.235744e+01	5.036903e-01	7.803538e-02	1.390711e+02	2.046437e+01
1.601556e+00	1.487973e+00	7.890821e+00	-2.492363e+00	1.870393e+05	3.234930e-01	1.232015e+02	1.920779e+01	5.098683e-01	7.540075e-02	1.248377e+02	1.747837e+01
1.683803e+00	1.525641e+00	7.700698e+00	-2.311626e+00	1.693278e+05	3.077957e-01	1.105992e+02	1.649040e+01	5.161591e-01	7.277809e-02	1.120895e+02	1.491223e+01
1.770243e+00	1.564263e+00	7.515373e+00	-2.143975e+00	1.532967e+05	2.928633e-01	9.931440e+01	1.414739e+01	5.225616e-01	7.017020e-02	1.006684e+02	1.270889e+01
1.861089e+00	1.603863e+00	7.334728e+00	-1.988465e+00	1.387864e+05	2.786583e-01	8.920683e+01	1.212847e+01	5.290747e-01	6.757996e-02	9.043376e+01	1.081882e+01
1.956566e+00	1.644465e+00	7.158649e+00	-1.844217e+00	1.256525e+05	2.651454e-01	8.015130e+01	1.038994e+01	5.356970e-01	6.501028e-02	8.125974e+01	9.199017e+00
2.056907e+00	1.686094e+00	6.987024e+00	-1.710417e+00	1.137642e+05	2.522907e-01	7.203614e+01	8.893858e+00	5.424266e-01	6.246409e-02	7.303428e+01	7.812221e+00
2.162359e+00	1.728778e+00	6.819744e+00	-1.586309e+00	1.030031e+05	2.400621e-01	6.476175e+01	7.607296e+00	5.492615e-01	5.994437e-02	6.565734e+01	6.626142e+00
2.273182e+00	1.772542e+00	6.656702e+00	-1.471193e+00	9.326227e+04	2.284291e-01	5.823926e+01	6.501688e+00	5.561995e-01	5.745405e-02	5.903963e+01	5.612814e+00
2.389647e+00	1.817415e+00	6.497795e+00	-1.364418e+00	8.444479e+04	2.173627e-01	5.238936e+01	5.552265e+00	5.632380e-01	5.499609e-02	5.310142e+01	4.748052e+00
2.512040e+00	1.863423e+00	6.342922e+00	-1.265381e+00	7.646299e+04	2.068350e-01	4.714124e+01	4.737565e+00	5.703739e-01	5.257343e-02	4.777152e+01	4.010919e+00
2.640660e+00	1.910595e+00	6.191982e+00	-1.173523e+00	6.923752e+04	1.968200e-01	4.243170e+01	4.038997e+00	5.776042e-01	5.018895e-02	4.298635e+01	3.383339e+00
2.775824e+00	1.958962e+00	6.044881e+00	-1.088324e+00	6.269659e+04	1.872925e-01	3.820427e+01	3.440470e+00	5.849252e-01	4.784548e-02	3.868910e+01	2.849693e+00
2.917861e+00	2.008554e+00	5.901522e+00	-1.009302e+00	5.677523e+04	1.782288e-01	3.440854e+01	2.928062e+00	5.923332e-01	4.554579e-02	3.482900e+01	2.396509e+00
3.067119e+00	2.059400e+00	5.761815e+00	-9.360110e-01	5.141462e+04	1.696062e-01	3.099946e+01	2.489736e+00	5.998238e-01	4.329259e-02	3.136067e+01	2.012178e+00
3.223963e+00	2.111534e+00	5.625669e+00	-8.680358e-01	4.656157e+04	1.614033e-01	2.793676e+01	2.115092e+00	6.073926e-01	4.108845e-02	2.824354e+01	1.686692e+00
3.388776e+00	2.164988e+00	5.492996e+00	-8.049920e-01	4.216791e+04	1.535994e-01	2.518446e+01	1.795149e+00	6.150348e-01	3.893585e-02	2.544131e+01	1.411442e+00
3.561959e+00	2.219795e+00	5.363710e+00	-7.465226e-01	3.819007e+04	1.461752e-01	2.271037e+01	1.522155e+00	6.227451e-01	3.683714e-02	2.292153e+01	1.179022e+00
3.743936e+00	2.275990e+00	5.237729e+00	-6.922968e-01	3.458859e+04	1.391121e-01	2.048574e+01	1.289428e+00	6.305181e-01	3.479453e-02	2.065516e+01	9.830730e-01
3.935148e+00	2.333606e+00	5.114969e+00	-6.420073e-01	3.132779e+04	1.323925e-01	1.848481e+01	1.091207e+00	6.383480e-01	3.281005e-02	1.861619e+01	8.181392e-01
