t[s]	x	Tg[10^9K]	dTg/dt[10^9K/s]	rho_tot[g cm^-3]	H[s^-1]	n nue->p e	p e->n nue	n->p e nue	p e nue->n	n e->p nue	p nue->n e
6.826863e-07	5.126576e-03	2.264809e+03	-8.216153e+07	2.457654e+15	3.708163e+04	1.129832e+14	1.122365e+14	2.508620e-01	2.492042e-01	1.129832e+14	1.122365e+14
1.399864e-06	5.256355e-03	2.209444e+03	-7.719849e+07	2.226942e+15	3.529823e+04	9.998285e+13	9.930581e+13	2.508826e-01	2.491837e-01	9.998284e+13	9.930580e+13
2.153682e-06	5.389421e-03	2.156101e+03	-7.076412e+07	2.015722e+15	3.358256e+04	8.835262e+13	8.773940e+13	2.509039e-01	2.491624e-01	8.835261e+13	8.773939e+13
2.945635e-06	5.525855e-03	2.103588e+03	-6.630862e+07	1.826265e+15	3.196541e+04	7.819645e+13	7.764034e+13	2.509254e-01	2.491409e-01	7.819644e+13	7.764033e+13
3.778015e-06	5.665742e-03	2.052693e+03	-6.114380e+07	1.653180e+15	3.041295e+04	6.913265e+13	6.862876e+13	2.509478e-01	2.491187e-01	6.913264e+13	6.862876e+13
4.652751e-06	5.809171e-03	2.003114e+03	-5.667888e+07	1.496955e+15	2.894029e+04	6.117010e+13	6.071324e+13	2.509705e-01	2.490961e-01	6.117009e+13	6.071323e+13
5.571921e-06	5.956231e-03	1.954811e+03	-5.255059e+07	1.355724e+15	2.754128e+04	5.413618e+13	5.372188e+13	2.509937e-01	2.490729e-01	5.413617e+13	5.372188e+13
6.537777e-06	6.107014e-03	1.907752e+03	-4.872237e+07	1.227832e+15	2.621005e+04	4.792083e+13	4.754507e+13	2.510175e-01	2.490492e-01	4.792082e+13	4.754507e+13
7.552684e-06	6.261614e-03	1.861896e+03	-4.518248e+07	1.112014e+15	2.494329e+04	4.242797e+13	4.208712e+13	2.510418e-01	2.490250e-01	4.242797e+13	4.208711e+13
8.619135e-06	6.420127e-03	1.817251e+03	-4.186364e+07	1.007120e+15	2.373773e+04	3.757187e+13	3.726262e+13	2.510667e-01	2.490002e-01	3.757186e+13	3.726261e+13
9.739699e-06	6.582653e-03	1.773729e+03	-3.883906e+07	9.121986e+14	2.259140e+04	3.328155e+13	3.300092e+13	2.510921e-01	2.489748e-01	3.328155e+13	3.300091e+13
1.091712e-05	6.749294e-03	1.731320e+03	-3.601814e+07	8.262215e+14	2.150041e+04	2.948565e+13	2.923094e+13	2.511181e-01	2.489489e-01	2.948564e+13	2.923094e+13
1.215428e-05	6.920153e-03	1.690026e+03	-3.337886e+07	7.483706e+14	2.046241e+04	2.612808e+13	2.589687e+13	2.511447e-01	2.489224e-01	2.612807e+13	2.589687e+13
1.345412e-05	7.095338e-03	1.649746e+03	-3.098795e+07	6.779246e+14	1.947553e+04	2.315974e+13	2.294982e+13	2.511719e-01	2.488953e-01	2.315974e+13	2.294981e+13
1.481985e-05	7.274957e-03	1.610494e+03	-2.874090e+07	6.140912e+14	1.853595e+04	2.053057e+13	2.033995e+13	2.511998e-01	2.488676e-01	2.053056e+13	2.033995e+13
1.625477e-05	7.459123e-03	1.572229e+03	-2.666723e+07	5.562995e+14	1.764220e+04	1.820370e+13	1.803060e+13	2.512283e-01	2.488392e-01	1.820370e+13	1.803059e+13
1.776236e-05	7.647952e-03	1.534926e+03	-2.474307e+07	5.039599e+14	1.679177e+04	1.614333e+13	1.598609e+13	2.512574e-01	2.488102e-01	1.614333e+13	1.598609e+13
1.934628e-05	7.841561e-03	1.498566e+03	-2.295568e+07	4.565554e+14	1.598252e+04	1.431870e+13	1.417586e+13	2.512872e-01	2.487805e-01	1.431869e+13	1.417586e+13
2.101039e-05	8.040071e-03	1.463117e+03	-2.130230e+07	4.136194e+14	1.521244e+04	1.270276e+13	1.257299e+13	2.513177e-01	2.487502e-01	1.270276e+13	1.257298e+13
2.275872e-05	8.243606e-03	1.428566e+03	-1.976203e+07	3.747266e+14	1.447957e+04	1.127113e+13	1.115320e+13	2.513489e-01	2.487191e-01	1.127113e+13	1.115320e+13
2.459550e-05	8.452294e-03	1.394879e+03	-1.834027e+07	3.395072e+14	1.378234e+04	1.000297e+13	9.895801e+12	2.513807e-01	2.486874e-01	1.000297e+13	9.895799e+12
2.652520e-05	8.666265e-03	1.362040e+03	-1.701802e+07	3.076001e+14	1.311873e+04	8.879049e+12	8.781633e+12	2.514133e-01	2.486550e-01	8.879047e+12	8.781631e+12
2.855248e-05	8.885653e-03	1.330027e+03	-1.579069e+07	2.786984e+14	1.248722e+04	7.882966e+12	7.794405e+12	2.514467e-01	2.486218e-01	7.882964e+12	7.794403e+12
3.068225e-05	9.110594e-03	1.298823e+03	-1.465136e+07	2.525218e+14	1.188633e+04	7.000075e+12	6.919550e+12	2.514808e-01	2.485879e-01	7.000073e+12	6.919549e+12
3.291964e-05	9.341230e-03	1.268448e+03	-1.357621e+07	2.288107e+14	1.131453e+04	6.217421e+12	6.144192e+12	2.515156e-01	2.485532e-01	6.217420e+12	6.144191e+12
3.526994e-05	9.577704e-03	1.238806e+03	-1.261193e+07	2.073564e+14	1.077103e+04	5.524391e+12	5.457775e+12	2.515512e-01	2.485178e-01	5.524389e+12	5.457774e+12
3.773889e-05	9.820165e-03	1.209908e+03	-1.170471e+07	1.879058e+14	1.025342e+04	4.909085e+12	4.848482e+12	2.515875e-01	2.484817e-01	4.909084e+12	4.848481e+12
4.033244e-05	1.006876e-02	1.181763e+03	-1.085202e+07	1.702839e+14	9.760796e+03	4.363242e+12	4.308099e+12	2.516247e-01	2.484447e-01	4.363241e+12	4.308098e+12
4.305674e-05	1.032366e-02	1.154326e+03	-1.007109e+07	1.543310e+14	9.292341e+03	3.879399e+12	3.829210e+12	2.516627e-01	2.484069e-01	3.879397e+12	3.829209e+12
4.591832e-05	1.058500e-02	1.127561e+03	-9.353354e+06	1.398787e+14	8.846557e+03	3.450025e+12	3.404337e+12	2.517015e-01	2.483683e-01	3.450024e+12	3.404336e+12
4.892415e-05	1.085296e-02	1.101493e+03	-8.672353e+06	1.267745e+14	8.421985e+03	3.068652e+12	3.027057e+12	2.517412e-01	2.483289e-01	3.068651e+12	3.027056e+12
5.208134e-05	1.112770e-02	1.076047e+03	-8.059744e+06	1.149113e+14	8.018254e+03	2.730400e+12	2.692520e+12	2.517817e-01	2.482886e-01	2.730399e+12	2.692520e+12
5.539763e-05	1.140940e-02	1.051269e+03	-7.471418e+06	1.041500e+14	7.633577e+03	2.429656e+12	2.395157e+12	2.518231e-01	2.482474e-01	2.429655e+12	2.395156e+12
5.888078e-05	1.169823e-02	1.027081e+03	-6.944313e+06	9.440976e+13	7.267866e+03	2.162877e+12	2.131448e+12	2.518654e-01	2.482054e-01	2.162876e+12	2.131447e+12
6.253937e-05	1.199438e-02	1.003489e+03	-6.448568e+06	8.557291e+13	6.919371e+03	1.925573e+12	1.896938e+12	2.519086e-01	2.481625e-01	1.925573e+12	1.896938e+12
6.638221e-05	1.229802e-02	9.804785e+02	-5.987795e+06	7.756364e+13	6.587606e+03	1.714645e+12	1.688552e+12	2.519528e-01	2.481186e-01	1.714644e+12	1.688551e+12
7.041867e-05	1.260934e-02	9.580735e+02	-5.550667e+06	7.030113e+13	6.271619e+03	1.527143e+12	1.503362e+12	2.519979e-01	2.480738e-01	1.527143e+12	1.503362e+12
7.465822e-05	1.292855e-02	9.361730e+02	-5.165766e+06	6.372695e+13	5.971178e+03	1.360701e+12	1.339020e+12	2.520440e-01	2.480280e-01	1.360700e+12	1.339019e+12
7.911139e-05	1.325584e-02	9.148137e+02	-4.796428e+06	5.775965e+13	5.684742e+03	1.212355e+12	1.192590e+12	2.520911e-01	2.479812e-01	1.212354e+12	1.192589e+12
8.378879e-05	1.359141e-02	8.940065e+02	-4.448449e+06	5.235458e+13	5.412225e+03	1.080426e+12	1.062404e+12	2.521393e-01	2.479334e-01	1.080426e+12	1.062404e+12
8.870127e-05	1.393548e-02	8.736748e+02	-4.138775e+06	4.746353e+13	5.153218e+03	9.632070e+11	9.467693e+11	2.521884e-01	2.478847e-01	9.632064e+11	9.467688e+11
9.386090e-05	1.428826e-02	8.538473e+02	-3.842814e+06	4.302548e+13	4.906382e+03	8.587199e+11	8.437273e+11	2.522387e-01	2.478348e-01	8.587194e+11	8.437268e+11
9.927989e-05	1.464996e-02	8.344858e+02	-3.572899e+06	3.900566e+13	4.671564e+03	7.657579e+11	7.520807e+11	2.522900e-01	2.477838e-01	7.657575e+11	7.520803e+11
1.049714e-04	1.502083e-02	8.155978e+02	-3.318625e+06	3.535948e+13	4.447863e+03	6.829285e+11	6.704503e+11	2.523425e-01	2.477318e-01	6.829281e+11	6.704499e+11
1.109492e-04	1.540108e-02	7.971515e+02	-3.085795e+06	3.205389e+13	4.234858e+03	6.091896e+11	5.978034e+11	2.523961e-01	2.476786e-01	6.091892e+11	5.978030e+11
1.172279e-04	1.579096e-02	7.791497e+02	-2.867147e+06	2.905540e+13	4.031920e+03	5.434637e+11	5.330732e+11	2.524509e-01	2.476242e-01	5.434633e+11	5.330728e+11
1.238227e-04	1.619071e-02	7.615812e+02	-2.663978e+06	2.633644e+13	3.838637e+03	4.849159e+11	4.754326e+11	2.525069e-01	2.475687e-01	4.849155e+11	4.754323e+11
1.307496e-04	1.660058e-02	7.444260e+02	-2.476600e+06	2.387156e+13	3.654592e+03	4.327539e+11	4.240975e+11	2.525641e-01	2.475120e-01	4.327535e+11	4.240971e+11
1.380255e-04	1.702083e-02	7.276868e+02	-2.300637e+06	2.163668e+13	3.479316e+03	3.862491e+11	3.783467e+11	2.526225e-01	2.474541e-01	3.862488e+11	3.783464e+11
1.456678e-04	1.745171e-02	7.113561e+02	-2.136877e+06	1.961163e+13	3.312495e+03	3.448137e+11	3.375985e+11	2.526823e-01	2.473949e-01	3.448134e+11	3.375982e+11
1.536948e-04	1.789351e-02	6.954223e+02	-1.985037e+06	1.777712e+13	3.153764e+03	3.078943e+11	3.013053e+11	2.527432e-01	2.473345e-01	3.078940e+11	3.013050e+11
1.621256e-04	1.834648e-02	6.798626e+02	-1.845585e+06	1.611488e+13	3.002700e+03	2.749893e+11	2.689711e+11	2.528055e-01	2.472728e-01	2.749890e+11	2.689709e+11
1.709807e-04	1.881093e-02	6.646930e+02	-1.713084e+06	1.460742e+13	2.858809e+03	2.456332e+11	2.401358e+11	2.528691e-01	2.472098e-01	2.456329e+11	2.401356e+11
1.802808e-04	1.928713e-02	6.498588e+02	-1.595055e+06	1.324300e+13	2.722022e+03	2.194814e+11	2.144585e+11	2.529340e-01	2.471456e-01	2.194812e+11	2.144583e+11
1.900487e-04	1.977538e-02	6.353734e+02	-1.482953e+06	1.200490e+13	2.591659e+03	1.961104e+11	1.915211e+11	2.530004e-01	2.470798e-01	1.961102e+11	1.915209e+11
2.003077e-04	2.027600e-02	6.212051e+02	-1.381065e+06	1.088320e+13	2.467612e+03	1.752535e+11	1.710599e+11	2.530682e-01	2.470127e-01	1.752532e+11	1.710597e+11
2.110830e-04	2.078929e-02	6.073704e+02	-1.283928e+06	9.865145e+12	2.349364e+03	1.566084e+11	1.527766e+11	2.531377e-01	2.469440e-01	1.566082e+11	1.527764e+11
2.224005e-04	2.131557e-02	5.938679e+02	-1.193069e+06	8.942550e+12	2.236810e+03	1.399681e+11	1.364664e+11	2.532086e-01	2.468739e-01	1.399679e+11	1.364662e+11
2.342870e-04	2.185518e-02	5.806593e+02	-1.111227e+06	8.106939e+12	2.129742e+03	1.251219e+11	1.219214e+11	2.532810e-01	2.468022e-01	1.251217e+11	1.219212e+11
2.467717e-04	2.240845e-02	5.677509e+02	-1.033940e+06	7.348663e+12	2.027695e+03	1.118452e+11	1.089201e+11	2.533551e-01	2.467290e-01	1.118450e+11	1.089199e+11
2.598849e-04	2.297572e-02	5.551510e+02	-9.608511e+05	6.661065e+12	1.930502e+03	9.998356e+10	9.730998e+10	2.534309e-01	2.466541e-01	9.998339e+10	9.730982e+10
2.736578e-04	2.355735e-02	5.428235e+02	-8.950544e+05	6.038257e+12	1.838037e+03	8.939782e+10	8.695380e+10	2.535082e-01	2.465777e-01	8.939766e+10	8.695365e+10
2.881246e-04	2.415371e-02	5.307703e+02	-8.331635e+05	5.472927e+12	1.749880e+03	7.992805e+10	7.769400e+10	2.535874e-01	2.464994e-01	7.992790e+10	7.769385e+10
3.033208e-04	2.476516e-02	5.189937e+02	-7.749734e+05	4.960142e+12	1.665887e+03	7.146229e+10	6.942016e+10	2.536684e-01	2.464195e-01	7.146215e+10	6.942002e+10
3.192829e-04	2.539210e-02	5.074659e+02	-7.221963e+05	4.495507e+12	1.585944e+03	6.389912e+10	6.203230e+10	2.537511e-01	2.463377e-01	6.389899e+10	6.203216e+10
3.360508e-04	2.603490e-02	4.962014e+02	-6.717888e+05	4.073902e+12	1.509746e+03	5.712981e+10	5.542340e+10	2.538359e-01	2.462541e-01	5.712968e+10	5.542328e+10
3.536643e-04	2.669398e-02	4.851800e+02	-6.257351e+05	3.692057e+12	1.437251e+03	5.108177e+10	4.952191e+10	2.539225e-01	2.461686e-01	5.108165e+10	4.952179e+10
3.721668e-04	2.736974e-02	4.744023e+02	-5.825009e+05	3.345809e+12	1.368198e+03	4.567105e+10	4.424523e+10	2.540112e-01	2.460812e-01	4.567093e+10	4.424512e+10
3.916033e-04	2.806261e-02	4.638640e+02	-5.421911e+05	3.031997e+12	1.302455e+03	4.083329e+10	3.953001e+10	2.541019e-01	2.459917e-01	4.083318e+10	3.952990e+10
4.120207e-04	2.877301e-02	4.535478e+02	-5.052662e+05	2.747665e+12	1.239882e+03	3.650828e+10	3.531701e+10	2.541947e-01	2.459002e-01	3.650818e+10	3.531691e+10
4.334698e-04	2.950141e-02	4.434683e+02	-4.699266e+05	2.489689e+12	1.180242e+03	3.263733e+10	3.154855e+10	2.542897e-01	2.458066e-01	3.263723e+10	3.154846e+10
4.560019e-04	3.024824e-02	4.335978e+02	-4.380618e+05	2.256090e+12	1.123509e+03	2.917944e+10	2.818428e+10	2.543868e-01	2.457109e-01	2.917935e+10	2.818419e+10
4.796734e-04	3.101398e-02	4.239469e+02	-4.077019e+05	2.044146e+12	1.069435e+03	2.608364e+10	2.517416e+10	2.544863e-01	2.456129e-01	2.608355e+10	2.517408e+10
5.045414e-04	3.179910e-02	4.144979e+02	-3.799662e+05	1.852178e+12	1.017981e+03	2.331646e+10	2.248530e+10	2.545881e-01	2.455127e-01	2.331638e+10	2.248522e+10
5.306672e-04	3.260410e-02	4.052515e+02	-3.539194e+05	1.678117e+12	9.689683e+02	2.083981e+10	2.008031e+10	2.546923e-01	2.454101e-01	2.083973e+10	2.008024e+10
5.581148e-04	3.342947e-02	3.962013e+02	-3.297262e+05	1.520389e+12	9.223076e+02	1.862456e+10	1.793059e+10	2.547991e-01	2.453051e-01	1.862448e+10	1.793052e+10
5.869518e-04	3.427574e-02	3.873427e+02	-3.071941e+05	1.377411e+12	8.778701e+02	1.664284e+10	1.600883e+10	2.549084e-01	2.451976e-01	1.664277e+10	1.600876e+10
6.172492e-04	3.514344e-02	3.786674e+02	-2.863379e+05	1.247821e+12	8.355543e+02	1.487013e+10	1.429095e+10	2.550204e-01	2.450875e-01	1.487006e+10	1.429089e+10
6.490823e-04	3.603310e-02	3.701787e+02	-2.666631e+05	1.130333e+12	7.952464e+02	1.328378e+10	1.275478e+10	2.551351e-01	2.449747e-01	1.328372e+10	1.275472e+10
6.825287e-04	3.694528e-02	3.618657e+02	-2.485464e+05	1.023914e+12	7.568854e+02	1.186556e+10	1.138242e+10	2.552527e-01	2.448593e-01	1.186550e+10	1.138236e+10
7.176714e-04	3.788055e-02	3.537246e+02	-2.316585e+05	9.274536e+11	7.203517e+02	1.059674e+10	1.015555e+10	2.553731e-01	2.447410e-01	1.059668e+10	1.015550e+10
7.545977e-04	3.883951e-02	3.457561e+02	-2.157965e+05	8.400230e+11	6.855578e+02	9.461721e+09	9.058924e+09	2.554966e-01	2.446198e-01	9.461668e+09	9.058874e+09
7.933983e-04	3.982273e-02	3.379504e+02	-2.011734e+05	7.608296e+11	6.524424e+02	8.447080e+09	8.079373e+09	2.556231e-01	2.444957e-01	8.447031e+09	8.079326e+09
8.341698e-04	4.083085e-02	3.303085e+02	-1.874314e+05	6.890458e+11	6.209013e+02	7.539490e+09	7.203881e+09	2.557529e-01	2.443685e-01	7.539443e+09	7.203837e+09
8.770131e-04	4.186449e-02	3.228241e+02	-1.746935e+05	6.240205e+11	5.908782e+02	6.728231e+09	6.421965e+09	2.558859e-01	2.442381e-01	6.728187e+09	6.421923e+09
9.220345e-04	4.292429e-02	3.154954e+02	-1.627831e+05	5.650986e+11	5.622903e+02	6.002914e+09	5.723480e+09	2.560223e-01	2.441045e-01	6.002873e+09	5.723440e+09
9.693457e-04	4.401093e-02	3.083168e+02	-1.517302e+05	5.117236e+11	5.350769e+02	5.354681e+09	5.099772e+09	2.561621e-01	2.439675e-01	5.354642e+09	5.099735e+09
1.019064e-03	4.512507e-02	3.012851e+02	-1.414312e+05	4.633666e+11	5.091677e+02	4.775262e+09	4.542774e+09	2.563056e-01	2.438271e-01	4.775226e+09	4.542739e+09
1.071314e-03	4.626741e-02	2.943988e+02	-1.317957e+05	4.195569e+11	4.845002e+02	4.257431e+09	4.045439e+09	2.564528e-01	2.436831e-01	4.257397e+09	4.045407e+09
1.126225e-03	4.743868e-02	2.876530e+02	-1.228482e+05	3.798777e+11	4.610207e+02	3.794848e+09	3.601584e+09	2.566038e-01	2.435355e-01	3.794816e+09	3.601553e+09
1.183934e-03	4.863960e-02	2.810447e+02	-1.145105e+05	3.439340e+11	4.386681e+02	3.381590e+09	3.205440e+09	2.567587e-01	2.433840e-01	3.381560e+09	3.205412e+09
1.244586e-03	4.987091e-02	2.745727e+02	-1.067091e+05	3.113746e+11	4.173881e+02	3.012464e+09	2.851953e+09	2.569178e-01	2.432286e-01	3.012436e+09	2.851927e+09
1.308330e-03	5.113340e-02	2.682325e+02	-9.946350e+04	2.818904e+11	3.971354e+02	2.682914e+09	2.536686e+09	2.570811e-01	2.430693e-01	2.682888e+09	2.536661e+09
1.375327e-03	5.242785e-02	2.620226e+02	-9.268942e+04	2.551852e+11	3.778559e+02	2.388688e+09	2.255507e+09	2.572487e-01	2.429058e-01	2.388664e+09	2.255484e+09
1.445743e-03	5.375507e-02	2.559399e+02	-8.638137e+04	2.310025e+11	3.595066e+02	2.126114e+09	2.004844e+09	2.574207e-01	2.427380e-01	2.126091e+09	2.004823e+09
1.519755e-03	5.511588e-02	2.499821e+02	-8.049777e+04	2.091029e+11	3.420412e+02	1.891825e+09	1.781431e+09	2.575974e-01	2.425658e-01	1.891804e+09	1.781411e+09
1.597547e-03	5.651115e-02	2.441470e+02	-7.500902e+04	1.892720e+11	3.254181e+02	1.682835e+09	1.582367e+09	2.577789e-01	2.423891e-01	1.682815e+09	1.582349e+09
1.679315e-03	5.794173e-02	2.384322e+02	-6.989002e+04	1.713160e+11	3.095975e+02	1.496469e+09	1.405058e+09	2.579652e-01	2.422077e-01	1.496450e+09	1.405041e+09
1.765263e-03	5.940854e-02	2.328359e+02	-6.511364e+04	1.550580e+11	2.945409e+02	1.330326e+09	1.247179e+09	2.581567e-01	2.420215e-01	1.330309e+09	1.247163e+09
1.855606e-03	6.091247e-02	2.273555e+02	-6.066240e+04	1.403388e+11	2.802124e+02	1.182262e+09	1.106651e+09	2.583533e-01	2.418304e-01	1.182247e+09	1.106637e+09
1.950569e-03	6.245448e-02	2.219895e+02	-5.650523e+04	1.270126e+11	2.665765e+02	1.050344e+09	9.816046e+08	2.585553e-01	2.416342e-01	1.050329e+09	9.815910e+08
2.050392e-03	6.403552e-02	2.167358e+02	-5.263044e+04	1.149491e+11	2.536012e+02	9.328593e+08	8.703835e+08	2.587628e-01	2.414328e-01	9.328458e+08	8.703709e+08
2.155323e-03	6.565659e-02	2.115926e+02	-4.901454e+04	1.040285e+11	2.412541e+02	8.282586e+08	7.714907e+08	2.589759e-01	2.412260e-01	8.282461e+08	7.714791e+08
2.265626e-03	6.731869e-02	2.065582e+02	-4.564178e+04	9.414330e+10	2.295055e+02	7.351634e+08	6.835954e+08	2.591950e-01	2.410137e-01	7.351519e+08	6.835846e+08
2.381577e-03	6.902287e-02	2.016309e+02	-4.249515e+04	8.519550e+10	2.183267e+02	6.523368e+08	6.055044e+08	2.594200e-01	2.407958e-01	6.523262e+08	6.054945e+08
2.503466e-03	7.077019e-02	1.968089e+02	-3.956015e+04	7.709664e+10	2.076903e+02	5.786732e+08	5.361522e+08	2.596512e-01	2.405720e-01	5.786633e+08	5.361431e+08
2.631598e-03	7.256175e-02	1.920908e+02	-3.682208e+04	6.976639e+10	1.975703e+02	5.131819e+08	4.745850e+08	2.598888e-01	2.403423e-01	5.131729e+08	4.745767e+08
2.766294e-03	7.439866e-02	1.874750e+02	-3.426875e+04	6.313212e+10	1.879419e+02	4.549781e+08	4.199515e+08	2.601329e-01	2.401065e-01	4.549697e+08	4.199437e+08
2.907893e-03	7.628207e-02	1.829598e+02	-3.188710e+04	5.712788e+10	1.787815e+02	4.032686e+08	3.714894e+08	2.603837e-01	2.398644e-01	4.032609e+08	3.714823e+08
3.056747e-03	7.821316e-02	1.785438e+02	-2.966640e+04	5.169405e+10	1.700665e+02	3.573459e+08	3.285194e+08	2.606413e-01	2.396159e-01	3.573388e+08	3.285129e+08
3.213230e-03	8.019313e-02	1.742256e+02	-2.759585e+04	4.677656e+10	1.617754e+02	3.165763e+08	2.904338e+08	2.609060e-01	2.393608e-01	3.165698e+08	2.904279e+08
3.377734e-03	8.222323e-02	1.700035e+02	-2.566554e+04	4.232645e+10	1.538879e+02	2.803942e+08	2.566906e+08	2.611780e-01	2.390989e-01	2.803882e+08	2.566852e+08
3.550670e-03	8.430472e-02	1.658761e+02	-2.386636e+04	3.829940e+10	1.463843e+02	2.482941e+08	2.268062e+08	2.614573e-01	2.388302e-01	2.482886e+08	2.268012e+08
3.732471e-03	8.643891e-02	1.618420e+02	-2.218967e+04	3.465526e+10	1.392461e+02	2.198249e+08	2.003490e+08	2.617443e-01	2.385545e-01	2.198199e+08	2.003444e+08
3.923604e-03	8.862712e-02	1.578997e+02	-2.062616e+04	3.135380e+10	1.324475e+02	1.945838e+08	1.769346e+08	2.620391e-01	2.382715e-01	1.945792e+08	1.769304e+08
4.124534e-03	9.087073e-02	1.540476e+02	-1.917120e+04	2.837093e+10	1.259898e+02	1.722116e+08	1.562202e+08	2.623418e-01	2.379812e-01	1.722073e+08	1.562164e+08
4.335769e-03	9.317113e-02	1.502843e+02	-1.781561e+04	2.567025e+10	1.198432e+02	1.523877e+08	1.379007e+08	2.626528e-01	2.376833e-01	1.523838e+08	1.378972e+08
4.557832e-03	9.552977e-02	1.466083e+02	-1.655392e+04	2.322800e+10	1.139999e+02	1.348268e+08	1.217044e+08	2.629721e-01	2.373777e-01	1.348232e+08	1.217012e+08
4.791278e-03	9.794812e-02	1.430181e+02	-1.537932e+04	2.101796e+10	1.084411e+02	1.192744e+08	1.073896e+08	2.633000e-01	2.370643e-01	1.192711e+08	1.073867e+08
5.036691e-03	1.004277e-01	1.395121e+02	-1.428612e+04	1.901808e+10	1.031530e+02	1.055041e+08	9.474150e+07	2.636367e-01	2.367428e-01	1.055011e+08	9.473878e+07
5.294686e-03	1.029700e-01	1.360888e+02	-1.326887e+04	1.720842e+10	9.812258e+01	9.331439e+07	8.356900e+07	2.639824e-01	2.364131e-01	9.331161e+07	8.356651e+07
5.565908e-03	1.055767e-01	1.327466e+02	-1.232255e+04	1.557090e+10	9.333731e+01	8.252602e+07	7.370255e+07	2.643373e-01	2.360750e-01	8.252347e+07	7.370027e+07
5.851036e-03	1.082494e-01	1.294841e+02	-1.144241e+04	1.408916e+10	8.878530e+01	7.297964e+07	6.499155e+07	2.647016e-01	2.357283e-01	7.297730e+07	6.498947e+07
6.150782e-03	1.109898e-01	1.262996e+02	-1.062401e+04	1.274840e+10	8.445520e+01	6.453368e+07	5.730244e+07	2.650756e-01	2.353729e-01	6.453153e+07	5.730053e+07
6.465896e-03	1.137995e-01	1.231915e+02	-9.863174e+03	1.153522e+10	8.033623e+01	5.706239e+07	5.051674e+07	2.654596e-01	2.350086e-01	5.706042e+07	5.051499e+07
6.797168e-03	1.166803e-01	1.201584e+02	-9.156013e+03	1.043748e+10	7.641810e+01	5.045418e+07	4.452946e+07	2.658536e-01	2.346351e-01	5.045236e+07	4.452786e+07
