t[s]	x	Tg[10^9K]	dTg/dt[10^9K/s]	rho_tot[g cm^-3]	H[s^-1]	n nue->p e	p e->n nue	n->p e nue	p e nue->n	n e->p nue	p nue->n e
2.947274e-06	1.025315e-02	1.132462e+03	-9.496120e+06	1.318627e+14	8.589334e+03	3.548861e+12	3.502111e+12	2.516742e-01	2.483588e-01	3.548904e+12	3.502154e+12
6.043774e-06	1.051271e-02	1.104879e+03	-8.908032e+06	1.194595e+14	8.175398e+03	3.141525e+12	3.099125e+12	2.517153e-01	2.483180e-01	3.141565e+12	3.099165e+12
9.298838e-06	1.077884e-02	1.078375e+03	-8.142229e+06	1.081046e+14	7.777151e+03	2.777567e+12	2.739150e+12	2.517578e-01	2.482757e-01	2.777603e+12	2.739186e+12
1.271857e-05	1.105171e-02	1.052130e+03	-7.674538e+06	9.794443e+13	7.402670e+03	2.460412e+12	2.425551e+12	2.518007e-01	2.482330e-01	2.460445e+12	2.425584e+12
1.631362e-05	1.133148e-02	1.026885e+03	-7.022222e+06	8.862403e+13	7.041647e+03	2.175603e+12	2.144014e+12	2.518454e-01	2.481887e-01	2.175633e+12	2.144044e+12
2.009089e-05	1.161834e-02	1.002098e+03	-6.562208e+06	8.028011e+13	6.701970e+03	1.927133e+12	1.898469e+12	2.518904e-01	2.481439e-01	1.927160e+12	1.898496e+12
2.406064e-05	1.191246e-02	9.780251e+02	-6.064033e+06	7.268371e+13	6.377009e+03	1.705798e+12	1.679804e+12	2.519369e-01	2.480977e-01	1.705823e+12	1.679829e+12
2.823195e-05	1.221403e-02	9.545120e+02	-5.636862e+06	6.582902e+13	6.068861e+03	1.510783e+12	1.487198e+12	2.519843e-01	2.480506e-01	1.510806e+12	1.487221e+12
3.261533e-05	1.252323e-02	9.316032e+02	-5.226288e+06	5.961359e+13	5.775254e+03	1.337939e+12	1.316542e+12	2.520330e-01	2.480023e-01	1.337960e+12	1.316562e+12
3.722138e-05	1.284025e-02	9.092635e+02	-4.850089e+06	5.398908e+13	5.496060e+03	1.185122e+12	1.165706e+12	2.520827e-01	2.479529e-01	1.185141e+12	1.165725e+12
4.206140e-05	1.316531e-02	8.874875e+02	-4.499150e+06	4.889544e+13	5.230373e+03	1.049874e+12	1.032256e+12	2.521336e-01	2.479024e-01	1.049892e+12	1.032273e+12
4.714718e-05	1.349859e-02	8.662577e+02	-4.174329e+06	4.428403e+13	4.977623e+03	9.302125e+11	9.142223e+11	2.521857e-01	2.478507e-01	9.302284e+11	9.142379e+11
5.249114e-05	1.384031e-02	8.455612e+02	-3.872887e+06	4.010854e+13	4.737147e+03	8.243105e+11	8.097966e+11	2.522390e-01	2.477978e-01	8.243250e+11	8.098108e+11
5.810630e-05	1.419068e-02	8.253841e+02	-3.593324e+06	3.632777e+13	4.508352e+03	7.305778e+11	7.174022e+11	2.522936e-01	2.477436e-01	7.305911e+11	7.174153e+11
6.400635e-05	1.454991e-02	8.057135e+02	-3.333973e+06	3.290427e+13	4.290665e+03	6.476043e+11	6.356423e+11	2.523494e-01	2.476882e-01	6.476165e+11	6.356542e+11
7.020565e-05	1.491825e-02	7.865366e+02	-3.093394e+06	2.980422e+13	4.083545e+03	5.741461e+11	5.632844e+11	2.524066e-01	2.476316e-01	5.741572e+11	5.632953e+11
7.671929e-05	1.529590e-02	7.678410e+02	-2.870229e+06	2.699697e+13	3.886476e+03	5.091032e+11	4.992396e+11	2.524650e-01	2.475736e-01	5.091134e+11	4.992495e+11
8.356312e-05	1.568312e-02	7.496143e+02	-2.663223e+06	2.445482e+13	3.698969e+03	4.515039e+11	4.425453e+11	2.525248e-01	2.475143e-01	4.515132e+11	4.425544e+11
9.075378e-05	1.608014e-02	7.318447e+02	-2.471207e+06	2.215265e+13	3.520557e+03	4.004889e+11	3.923513e+11	2.525860e-01	2.474537e-01	4.004975e+11	3.923597e+11
9.830874e-05	1.648721e-02	7.145205e+02	-2.293093e+06	2.006775e+13	3.350795e+03	3.552991e+11	3.479062e+11	2.526486e-01	2.473916e-01	3.553069e+11	3.479139e+11
1.062463e-04	1.690459e-02	6.976303e+02	-2.127877e+06	1.817957e+13	3.189263e+03	3.152631e+11	3.085460e+11	2.527126e-01	2.473282e-01	3.152703e+11	3.085530e+11
1.145859e-04	1.733253e-02	6.811628e+02	-1.974625e+06	1.646950e+13	3.035559e+03	2.797879e+11	2.736838e+11	2.527781e-01	2.472633e-01	2.797944e+11	2.736902e+11
1.233475e-04	1.777131e-02	6.651073e+02	-1.832471e+06	1.492068e+13	2.889301e+03	2.483487e+11	2.428011e+11	2.528451e-01	2.471970e-01	2.483547e+11	2.428069e+11
1.325526e-04	1.822119e-02	6.494531e+02	-1.700612e+06	1.351787e+13	2.750126e+03	2.204820e+11	2.154393e+11	2.529136e-01	2.471292e-01	2.204875e+11	2.154447e+11
1.422234e-04	1.868246e-02	6.341896e+02	-1.578301e+06	1.224727e+13	2.617690e+03	1.957776e+11	1.911933e+11	2.529837e-01	2.470598e-01	1.957826e+11	1.911982e+11
1.523833e-04	1.915541e-02	6.193069e+02	-1.464849e+06	1.109638e+13	2.491662e+03	1.738730e+11	1.697048e+11	2.530553e-01	2.469889e-01	1.738776e+11	1.697093e+11
1.630570e-04	1.964033e-02	6.047948e+02	-1.359614e+06	1.005390e+13	2.371732e+03	1.544474e+11	1.506570e+11	2.531286e-01	2.469164e-01	1.544516e+11	1.506611e+11
1.742703e-04	2.013753e-02	5.906437e+02	-1.261998e+06	9.109572e+12	2.257602e+03	1.372172e+11	1.337699e+11	2.532035e-01	2.468423e-01	1.372211e+11	1.337737e+11
1.860503e-04	2.064731e-02	5.768439e+02	-1.171453e+06	8.254141e+12	2.148990e+03	1.219315e+11	1.187958e+11	2.532802e-01	2.467665e-01	1.219351e+11	1.187992e+11
1.984256e-04	2.117000e-02	5.633863e+02	-1.087463e+06	7.479211e+12	2.045627e+03	1.083684e+11	1.055157e+11	2.533585e-01	2.466890e-01	1.083716e+11	1.055188e+11
2.114260e-04	2.170592e-02	5.502617e+02	-1.009553e+06	6.777185e+12	1.947257e+03	9.633139e+10	9.373579e+10	2.534386e-01	2.466099e-01	9.633440e+10	9.373872e+10
2.250830e-04	2.225541e-02	5.374613e+02	-9.372817e+05	6.141186e+12	1.853637e+03	8.564681e+10	8.328483e+10	2.535206e-01	2.465289e-01	8.564957e+10	8.328751e+10
2.394296e-04	2.281881e-02	5.249763e+02	-8.702405e+05	5.564987e+12	1.764536e+03	7.616086e+10	7.401117e+10	2.536043e-01	2.464462e-01	7.616339e+10	7.401363e+10
2.545005e-04	2.339647e-02	5.127982e+02	-8.080499e+05	5.042950e+12	1.679735e+03	6.773742e+10	6.578068e+10	2.536900e-01	2.463616e-01	6.773974e+10	6.578293e+10
2.703321e-04	2.398875e-02	5.009189e+02	-7.503568e+05	4.569970e+12	1.599025e+03	6.025600e+10	5.847466e+10	2.537775e-01	2.462751e-01	6.025813e+10	5.847673e+10
2.869626e-04	2.459603e-02	4.893301e+02	-6.968352e+05	4.141424e+12	1.522206e+03	5.360995e+10	5.198807e+10	2.538671e-01	2.461868e-01	5.361190e+10	5.198997e+10
3.044323e-04	2.521868e-02	4.780241e+02	-6.471824e+05	3.753129e+12	1.449090e+03	4.770480e+10	4.622793e+10	2.539586e-01	2.460964e-01	4.770660e+10	4.622967e+10
3.227833e-04	2.585710e-02	4.669930e+02	-6.011158e+05	3.401295e+12	1.379497e+03	4.245692e+10	4.111192e+10	2.540523e-01	2.460041e-01	4.245857e+10	4.111352e+10
3.420599e-04	2.651167e-02	4.562294e+02	-5.583765e+05	3.082489e+12	1.313256e+03	3.779221e+10	3.656717e+10	2.541480e-01	2.459097e-01	3.779373e+10	3.656864e+10
3.623087e-04	2.718282e-02	4.457259e+02	-5.187226e+05	2.793604e+12	1.250204e+03	3.364505e+10	3.252914e+10	2.542459e-01	2.458133e-01	3.364644e+10	3.253048e+10
3.835785e-04	2.787095e-02	4.354753e+02	-4.819300e+05	2.531825e+12	1.190187e+03	2.995727e+10	2.894066e+10	2.543459e-01	2.457147e-01	2.995854e+10	2.894189e+10
4.059208e-04	2.857651e-02	4.254706e+02	-4.477895e+05	2.294602e+12	1.133058e+03	2.667733e+10	2.575110e+10	2.544483e-01	2.456139e-01	2.667851e+10	2.575223e+10
4.293895e-04	2.929993e-02	4.157051e+02	-4.161099e+05	2.079628e+12	1.078677e+03	2.375957e+10	2.291559e+10	2.545530e-01	2.455108e-01	2.376065e+10	2.291663e+10
4.540413e-04	3.004166e-02	4.061720e+02	-3.867111e+05	1.884812e+12	1.026910e+03	2.116348e+10	2.039439e+10	2.546600e-01	2.454054e-01	2.116447e+10	2.039534e+10
4.799356e-04	3.080217e-02	3.968649e+02	-3.594275e+05	1.708258e+12	9.776317e+02	1.885317e+10	1.815225e+10	2.547695e-01	2.452977e-01	1.885407e+10	1.815312e+10
5.071351e-04	3.158193e-02	3.877774e+02	-3.341039e+05	1.548254e+12	9.307211e+02	1.679677e+10	1.615794e+10	2.548815e-01	2.451876e-01	1.679760e+10	1.615874e+10
5.357054e-04	3.238143e-02	3.789035e+02	-3.105979e+05	1.403243e+12	8.860638e+02	1.496607e+10	1.438379e+10	2.549960e-01	2.450750e-01	1.496683e+10	1.438452e+10
5.657156e-04	3.320117e-02	3.702372e+02	-2.887781e+05	1.271821e+12	8.435511e+02	1.333600e+10	1.280524e+10	2.551132e-01	2.449598e-01	1.333670e+10	1.280590e+10
5.972381e-04	3.404166e-02	3.617728e+02	-2.685211e+05	1.152710e+12	8.030795e+02	1.188433e+10	1.140050e+10	2.552331e-01	2.448421e-01	1.188497e+10	1.140111e+10
6.303492e-04	3.490343e-02	3.535045e+02	-2.497123e+05	1.044757e+12	7.645504e+02	1.059132e+10	1.015025e+10	2.553557e-01	2.447217e-01	1.059191e+10	1.015081e+10
6.651290e-04	3.578701e-02	3.454270e+02	-2.322470e+05	9.469150e+11	7.278703e+02	9.439459e+09	9.037365e+09	2.554812e-01	2.445985e-01	9.439995e+09	9.037878e+09
7.016613e-04	3.669297e-02	3.375350e+02	-2.160282e+05	8.582366e+11	6.929502e+02	8.413186e+09	8.046614e+09	2.556097e-01	2.444725e-01	8.413677e+09	8.047082e+09
7.400347e-04	3.762185e-02	3.298234e+02	-2.009635e+05	7.778630e+11	6.597054e+02	7.498681e+09	7.164488e+09	2.557411e-01	2.443435e-01	7.499130e+09	7.164917e+09
7.803418e-04	3.857426e-02	3.222871e+02	-1.869701e+05	7.050161e+11	6.280555e+02	6.683672e+09	6.378998e+09	2.558757e-01	2.442117e-01	6.684083e+09	6.379390e+09
8.226802e-04	3.955077e-02	3.149215e+02	-1.739712e+05	6.389908e+11	5.979237e+02	5.957249e+09	5.679489e+09	2.560135e-01	2.440767e-01	5.957624e+09	5.679847e+09
8.671522e-04	4.055200e-02	3.077217e+02	-1.618937e+05	5.791479e+11	5.692372e+02	5.309711e+09	5.056493e+09	2.561545e-01	2.439386e-01	5.310054e+09	5.056820e+09
9.138654e-04	4.157858e-02	3.006834e+02	-1.506701e+05	5.249084e+11	5.419263e+02	4.732437e+09	4.501599e+09	2.562989e-01	2.437972e-01	4.732751e+09	4.501898e+09
9.629329e-04	4.263115e-02	2.938022e+02	-1.402401e+05	4.757477e+11	5.159253e+02	4.217763e+09	4.007337e+09	2.564468e-01	2.436526e-01	4.218050e+09	4.007609e+09
1.014473e-03	4.371036e-02	2.870738e+02	-1.305462e+05	4.311902e+11	4.911712e+02	3.758867e+09	3.567056e+09	2.565983e-01	2.435044e-01	3.759129e+09	3.567305e+09
1.068611e-03	4.481689e-02	2.804942e+02	-1.215338e+05	3.908046e+11	4.676041e+02	3.349677e+09	3.174847e+09	2.567535e-01	2.433528e-01	3.349916e+09	3.175074e+09
1.125478e-03	4.595144e-02	2.740596e+02	-1.131538e+05	3.542006e+11	4.451672e+02	2.984796e+09	2.825455e+09	2.569125e-01	2.431975e-01	2.985014e+09	2.825662e+09
1.185210e-03	4.711470e-02	2.677661e+02	-1.053602e+05	3.210243e+11	4.238064e+02	2.659418e+09	2.514207e+09	2.570754e-01	2.430384e-01	2.659617e+09	2.514395e+09
1.247954e-03	4.830742e-02	2.616102e+02	-9.811181e+04	2.909551e+11	4.034702e+02	2.369265e+09	2.236943e+09	2.572424e-01	2.428756e-01	2.369447e+09	2.237115e+09
1.313860e-03	4.953032e-02	2.555885e+02	-9.136821e+04	2.637019e+11	3.841096e+02	2.110525e+09	1.989960e+09	2.574135e-01	2.427087e-01	2.110690e+09	1.990117e+09
1.383088e-03	5.078419e-02	2.496976e+02	-8.509486e+04	2.390015e+11	3.656779e+02	1.879802e+09	1.769963e+09	2.575890e-01	2.425377e-01	1.879953e+09	1.770106e+09
1.455805e-03	5.206980e-02	2.439343e+02	-7.925614e+04	2.166146e+11	3.481307e+02	1.674069e+09	1.574014e+09	2.577688e-01	2.423626e-01	1.674207e+09	1.574144e+09
1.532188e-03	5.338795e-02	2.382956e+02	-7.382219e+04	1.963249e+11	3.314257e+02	1.490632e+09	1.399501e+09	2.579532e-01	2.421831e-01	1.490757e+09	1.399618e+09
1.612420e-03	5.473947e-02	2.327785e+02	-6.876406e+04	1.779361e+11	3.155226e+02	1.327084e+09	1.244093e+09	2.581424e-01	2.419992e-01	1.327197e+09	1.244200e+09
1.696696e-03	5.612521e-02	2.273802e+02	-6.405443e+04	1.612701e+11	3.003831e+02	1.181281e+09	1.105715e+09	2.583363e-01	2.418106e-01	1.181385e+09	1.105812e+09
1.785220e-03	5.754603e-02	2.220981e+02	-5.966917e+04	1.461658e+11	2.859706e+02	1.051313e+09	9.825172e+08	2.585353e-01	2.416173e-01	1.051407e+09	9.826052e+08
1.878204e-03	5.900281e-02	2.169296e+02	-5.558458e+04	1.324769e+11	2.722504e+02	9.354723e+08	8.728511e+08	2.587394e-01	2.414192e-01	9.355578e+08	8.729309e+08
1.975875e-03	6.049647e-02	2.118723e+02	-5.177955e+04	1.200708e+11	2.591893e+02	8.322388e+08	7.752473e+08	2.589488e-01	2.412161e-01	8.323165e+08	7.753196e+08
2.078466e-03	6.202795e-02	2.069237e+02	-4.823523e+04	1.088274e+11	2.467559e+02	7.402547e+08	6.883956e+08	2.591637e-01	2.410078e-01	7.403252e+08	6.884612e+08
2.186227e-03	6.359820e-02	2.020817e+02	-4.493276e+04	9.863770e+10	2.349200e+02	6.583068e+08	6.111262e+08	2.593842e-01	2.407943e-01	6.583708e+08	6.111856e+08
2.299416e-03	6.520819e-02	1.973442e+02	-4.185508e+04	8.940310e+10	2.236530e+02	5.853133e+08	5.423968e+08	2.596105e-01	2.405753e-01	5.853714e+08	5.424506e+08
2.418307e-03	6.685894e-02	1.927091e+02	-3.898651e+04	8.103408e+10	2.129278e+02	5.203086e+08	4.812778e+08	2.598427e-01	2.403507e-01	5.203612e+08	4.813264e+08
2.543185e-03	6.855149e-02	1.881744e+02	-3.631298e+04	7.344953e+10	2.027183e+02	4.624305e+08	4.269399e+08	2.600811e-01	2.401204e-01	4.624782e+08	4.269839e+08
2.674352e-03	7.028688e-02	1.837382e+02	-3.382086e+04	6.657587e+10	1.929998e+02	4.109085e+08	3.786428e+08	2.603257e-01	2.398842e-01	4.109517e+08	3.786826e+08
2.812122e-03	7.206620e-02	1.793987e+02	-3.149786e+04	6.034648e+10	1.837488e+02	3.650549e+08	3.357262e+08	2.605768e-01	2.396419e-01	3.650940e+08	3.357622e+08
2.956827e-03	7.389056e-02	1.751542e+02	-2.933190e+04	5.470093e+10	1.749427e+02	3.242552e+08	2.976008e+08	2.608346e-01	2.393935e-01	3.242906e+08	2.976333e+08
3.108815e-03	7.576111e-02	1.710030e+02	-2.731293e+04	4.958451e+10	1.665603e+02	2.879613e+08	2.637415e+08	2.610991e-01	2.391387e-01	2.879933e+08	2.637709e+08
3.268450e-03	7.767901e-02	1.669434e+02	-2.543070e+04	4.494755e+10	1.585811e+02	2.556830e+08	2.336792e+08	2.613707e-01	2.388775e-01	2.557119e+08	2.337056e+08
3.436116e-03	7.964546e-02	1.629738e+02	-2.367575e+04	4.074505e+10	1.509857e+02	2.269829e+08	2.069956e+08	2.616495e-01	2.386095e-01	2.270091e+08	2.070194e+08
3.612214e-03	8.166170e-02	1.590926e+02	-2.203988e+04	3.693630e+10	1.437557e+02	2.014708e+08	1.833179e+08	2.619356e-01	2.383347e-01	2.014945e+08	1.833394e+08
3.797167e-03	8.372897e-02	1.552983e+02	-2.051484e+04	3.348433e+10	1.368735e+02	1.787978e+08	1.623135e+08	2.622293e-01	2.380530e-01	1.788191e+08	1.623328e+08
3.991417e-03	8.584858e-02	1.515894e+02	-1.909328e+04	3.035568e+10	1.303222e+02	1.586528e+08	1.436858e+08	2.625308e-01	2.377641e-01	1.586721e+08	1.437032e+08
4.195429e-03	8.802185e-02	1.479645e+02	-1.776826e+04	2.752001e+10	1.240860e+02	1.407581e+08	1.271705e+08	2.628402e-01	2.374679e-01	1.407755e+08	1.271863e+08
4.409693e-03	9.025013e-02	1.444220e+02	-1.653354e+04	2.494986e+10	1.181497e+02	1.248660e+08	1.125323e+08	2.631577e-01	2.371642e-01	1.248816e+08	1.125464e+08
4.634718e-03	9.253483e-02	1.409604e+02	-1.538291e+04	2.262029e+10	1.124987e+02	1.107552e+08	9.956104e+07	2.634836e-01	2.368529e-01	1.107694e+08	9.957375e+07
4.871045e-03	9.487736e-02	1.375784e+02	-1.431092e+04	2.050875e+10	1.071194e+02	9.822888e+07	8.807000e+07	2.638180e-01	2.365338e-01	9.824163e+07	8.808143e+07
5.119236e-03	9.727919e-02	1.342743e+02	-1.331258e+04	1.859481e+10	1.019986e+02	8.711114e+07	7.789274e+07	2.641612e-01	2.362068e-01	8.712262e+07	7.790301e+07
5.379883e-03	9.974182e-02	1.310469e+02	-1.238225e+04	1.685990e+10	9.712386e+01	7.724520e+07	6.888101e+07	2.645133e-01	2.358716e-01	7.725554e+07	6.889023e+07
5.653609e-03	1.022668e-01	1.278946e+02	-1.151640e+04	1.528729e+10	9.248338e+01	6.849193e+07	6.090341e+07	2.648746e-01	2.355280e-01	6.850124e+07	6.091169e+07
5.941067e-03	1.048557e-01	1.248158e+02	-1.071019e+04	1.386170e+10	8.806569e+01	6.072672e+07	5.384248e+07	2.652453e-01	2.351760e-01	6.073509e+07	5.384990e+07
6.242940e-03	1.075101e-01	1.218094e+02	-9.959374e+03	1.256938e+10	8.386012e+01	5.383902e+07	4.759413e+07	2.656257e-01	2.348153e-01	5.384655e+07	4.760079e+07
6.559980e-03	1.102318e-01	1.188737e+02	-9.259637e+03	1.139552e+10	7.984827e+01	4.773062e+07	4.206606e+07	2.660159e-01	2.344457e-01	4.773738e+07	4.207202e+07
6.892904e-03	1.130223e-01	1.160072e+02	-8.609928e+03	1.033414e+10	7.603886e+01	4.231392e+07	3.717604e+07	2.664161e-01	2.340671e-01	4.232000e+07	3.718138e+07
7.242504e-03	1.158835e-01	1.133827e+02	-7.507130e+03	9.371696e+09	7.241151e+01	3.751104e+07	3.285096e+07	2.668323e-01	2.336741e-01	3.751635e+07	3.285587e+07
7.609236e-03	1.188171e-01	1.105352e+02	-7.764527e+03	8.516585e+09	6.902894e+01	3.318964e+07	2.925686e+07	2.672478e-01	2.332826e-01	3.351427e+07	2.897420e+07
7.994825e-03	1.218249e-01	1.080384e+02	-6.475487e+03	7.703953e+09	6.565311e+01	2.936222e+07	2.571611e+07	2.677014e-01	2.328555e-01	2.956157e+07	2.554560e+07
8.399237e-03	1.249090e-01	1.054094e+02	-6.500696e+03	7.003528e+09	6.259749e+01	2.599829e+07	2.290478e+07	2.681379e-01	2.324454e-01	2.641444e+07	2.254050e+07
8.824055e-03	1.280710e-01	1.029271e+02	-5.843146e+03	6.346834e+09	5.959051e+01	2.302436e+07	2.021364e+07	2.686062e-01	2.320060e-01	2.339390e+07	1.989134e+07
9.269954e-03	1.313132e-01	1.004544e+02	-5.545405e+03	5.760892e+09	5.677320e+01	2.039750e+07	1.791162e+07	2.690765e-01	2.315655e-01	2.080272e+07	1.755805e+07
9.738165e-03	1.346374e-01	9.806274e+01	-5.108168e+03	5.224913e+09	5.406771e+01	1.807408e+07	1.583140e+07	2.695641e-01	2.311094e-01	1.845448e+07	1.550038e+07
1.022968e-02	1.380457e-01	9.571453e+01	-4.777466e+03	4.741126e+09	5.150380e+01	1.601892e+07	1.400791e+07	2.700610e-01	2.306455e-01	1.638993e+07	1.368575e+07
1.074572e-02	1.415404e-01	9.342681e+01	-4.433247e+03	4.301322e+09	4.905683e+01	1.419991e+07	1.238487e+07	2.705718e-01	2.301693e-01	1.454676e+07	1.208456e+07
1.128746e-02	1.451235e-01	9.119038e+01	-4.128238e+03	3.902842e+09	4.672927e+01	1.258957e+07	1.095190e+07	2.710947e-01	2.296828e-01	1.291436e+07	1.067153e+07
1.185620e-02	1.487973e-01	8.900929e+01	-3.834978e+03	3.541146e+09	4.451132e+01	1.116349e+07	9.682368e+06	2.716309e-01	2.291848e-01	1.146352e+07	9.424197e+06
1.245326e-02	1.525641e-01	8.688075e+01	-3.565047e+03	3.213125e+09	4.239965e+01	9.900332e+06	8.560433e+06	2.721801e-01	2.286756e-01	1.017717e+07	8.323011e+06
1.308005e-02	1.564263e-01	8.480519e+01	-3.311370e+03	2.915482e+09	4.038812e+01	8.781311e+06	7.568252e+06	2.727428e-01	2.281549e-01	9.035763e+06	7.350773e+06
1.373806e-02	1.603863e-01	8.278174e+01	-3.075117e+03	2.645446e+09	3.847228e+01	7.789875e+06	6.691539e+06	2.733192e-01	2.276226e-01	8.023732e+06	6.492362e+06
1.442884e-02	1.644465e-01	8.080977e+01	-2.854707e+03	2.400426e+09	3.664736e+01	6.911363e+06	5.916972e+06	2.739096e-01	2.270784e-01	7.126470e+06	5.734415e+06
1.515401e-02	1.686094e-01	7.888821e+01	-2.649795e+03	2.178103e+09	3.490903e+01	6.132882e+06	5.232826e+06	2.745142e-01	2.265223e-01	6.331105e+06	5.065205e+06
1.591530e-02	1.728778e-01	7.701617e+01	-2.459049e+03	1.976364e+09	3.325309e+01	5.442992e+06	4.628543e+06	2.751334e-01	2.259539e-01	5.626001e+06	4.474354e+06
1.671449e-02	1.772542e-01	7.519211e+01	-2.282365e+03	1.793312e+09	3.167571e+01	4.831558e+06	4.094840e+06	2.757675e-01	2.253731e-01	5.000912e+06	3.952685e+06
1.755349e-02	1.817415e-01	7.341453e+01	-2.118697e+03	1.627204e+09	3.017307e+01	4.289600e+06	3.623333e+06	2.764168e-01	2.247797e-01	4.446548e+06	3.492091e+06
1.843427e-02	1.863423e-01	7.168208e+01	-1.966945e+03	1.476475e+09	2.874164e+01	3.809184e+06	3.206651e+06	2.770818e-01	2.241733e-01	3.954718e+06	3.085429e+06
1.935892e-02	1.910595e-01	6.999272e+01	-1.827032e+03	1.339707e+09	2.737811e+01	3.383239e+06	2.838337e+06	2.777631e-01	2.235536e-01	3.518233e+06	2.726341e+06
2.032963e-02	1.958962e-01	6.834577e+01	-1.696647e+03	1.215593e+09	2.607909e+01	3.005508e+06	2.512567e+06	2.784611e-01	2.229200e-01	3.130582e+06	2.409227e+06
2.134868e-02	2.008554e-01	6.673842e+01	-1.577313e+03	1.102994e+09	2.484191e+01	2.670480e+06	2.224473e+06	2.791764e-01	2.222725e-01	2.786324e+06	2.129163e+06
2.241849e-02	2.059400e-01	6.517016e+01	-1.465921e+03	1.000805e+09	2.366319e+01	2.373248e+06	1.969401e+06	2.799098e-01	2.216101e-01	2.480216e+06	1.881782e+06
2.354158e-02	2.111534e-01	6.363927e+01	-1.363094e+03	9.080868e+08	2.254043e+01	2.109477e+06	1.743632e+06	2.806617e-01	2.209329e-01	2.208084e+06	1.663229e+06
2.472063e-02	2.164988e-01	6.214415e+01	-1.268078e+03	8.239532e+08	2.147088e+01	1.875340e+06	1.543696e+06	2.814327e-01	2.202401e-01	1.966006e+06	1.470113e+06
2.595842e-02	2.219795e-01	6.068412e+01	-1.179545e+03	7.476012e+08	2.045189e+01	1.667462e+06	1.366562e+06	2.822236e-01	2.195315e-01	1.750547e+06	1.299458e+06
2.725788e-02	2.275990e-01	5.925829e+01	-1.097247e+03	6.783166e+08	1.948116e+01	1.482844e+06	1.209656e+06	2.830348e-01	2.188065e-01	1.558794e+06	1.148624e+06
2.862227e-02	2.333606e-01	5.788488e+01	-1.006613e+03	6.153041e+08	1.855425e+01	1.318822e+06	1.070671e+06	2.838669e-01	2.180650e-01	1.388121e+06	1.015270e+06
