t[s]	x	Tg[10^9K]	dTg/dt[10^9K/s]	rho_tot[g cm^-3]	H[s^-1]	n nue->p e	p e->n nue	n->p e nue	p e nue->n	n e->p nue	p nue->n e
7.141167e-07	5.126576e-03	2.264666e+03	-7.874597e+07	2.246077e+15	3.544956e+04	1.129832e+14	1.122365e+14	2.508620e-01	2.492042e-01	1.129832e+14	1.122365e+14
1.464379e-06	5.256355e-03	2.209715e+03	-7.324318e+07	2.034871e+15	3.374170e+04	9.995126e+13	9.927439e+13	2.508826e-01	2.491836e-01	9.995125e+13	9.927438e+13
2.252909e-06	5.389421e-03	2.156820e+03	-6.707973e+07	1.842157e+15	3.210420e+04	8.840662e+13	8.779310e+13	2.509038e-01	2.491625e-01	8.840661e+13	8.779309e+13
3.081407e-06	5.525855e-03	2.105102e+03	-6.242358e+07	1.668707e+15	3.055544e+04	7.832683e+13	7.776997e+13	2.509252e-01	2.491412e-01	7.832682e+13	7.776997e+13
3.952184e-06	5.665742e-03	2.055047e+03	-5.748416e+07	1.510600e+15	2.907188e+04	6.938169e+13	6.887636e+13	2.509471e-01	2.491194e-01	6.938168e+13	6.887635e+13
4.867302e-06	5.809171e-03	2.006355e+03	-5.320812e+07	1.367754e+15	2.766321e+04	6.152130e+13	6.106235e+13	2.509694e-01	2.490971e-01	6.152130e+13	6.106234e+13
5.828916e-06	5.956231e-03	1.958939e+03	-4.930805e+07	1.238686e+15	2.632565e+04	5.457518e+13	5.415820e+13	2.509922e-01	2.490744e-01	5.457517e+13	5.415819e+13
6.839380e-06	6.107014e-03	1.912806e+03	-4.565560e+07	1.121817e+15	2.505298e+04	4.842857e+13	4.804963e+13	2.510154e-01	2.490513e-01	4.842857e+13	4.804963e+13
7.901097e-06	6.261614e-03	1.867816e+03	-4.237527e+07	1.016121e+15	2.384357e+04	4.299246e+13	4.264798e+13	2.510391e-01	2.490276e-01	4.299246e+13	4.264797e+13
9.016649e-06	6.420127e-03	1.823903e+03	-3.936446e+07	9.204140e+14	2.269291e+04	3.817239e+13	3.785919e+13	2.510634e-01	2.490034e-01	3.817239e+13	3.785919e+13
1.018877e-05	6.582653e-03	1.781082e+03	-3.653251e+07	8.337143e+14	2.159768e+04	3.389458e+13	3.360982e+13	2.510882e-01	2.489787e-01	3.389458e+13	3.360981e+13
1.142033e-05	6.749294e-03	1.739429e+03	-3.382140e+07	7.551809e+14	2.055531e+04	3.010132e+13	2.984236e+13	2.511136e-01	2.489534e-01	3.010131e+13	2.984236e+13
1.271420e-05	6.920153e-03	1.698636e+03	-3.152771e+07	6.842022e+14	1.956549e+04	2.674508e+13	2.650952e+13	2.511396e-01	2.489276e-01	2.674508e+13	2.650951e+13
1.407372e-05	7.095338e-03	1.658871e+03	-2.924913e+07	6.197126e+14	1.862060e+04	2.375518e+13	2.354095e+13	2.511662e-01	2.489011e-01	2.375518e+13	2.354095e+13
1.550216e-05	7.274957e-03	1.620075e+03	-2.715998e+07	5.613580e+14	1.772223e+04	2.110410e+13	2.090924e+13	2.511934e-01	2.488740e-01	2.110410e+13	2.090923e+13
1.700298e-05	7.459123e-03	1.582143e+03	-2.527434e+07	5.085157e+14	1.686750e+04	1.875111e+13	1.857384e+13	2.512212e-01	2.488463e-01	1.875110e+13	1.857384e+13
1.857997e-05	7.647952e-03	1.545161e+03	-2.345059e+07	4.605812e+14	1.605283e+04	1.665822e+13	1.649699e+13	2.512497e-01	2.488178e-01	1.665822e+13	1.649698e+13
2.023689e-05	7.841561e-03	1.509014e+03	-2.181601e+07	4.172129e+14	1.527838e+04	1.480198e+13	1.465530e+13	2.512789e-01	2.487888e-01	1.480198e+13	1.465530e+13
2.197792e-05	8.040071e-03	1.473786e+03	-2.023380e+07	3.778805e+14	1.454038e+04	1.315129e+13	1.301786e+13	2.513088e-01	2.487590e-01	1.315129e+13	1.301786e+13
2.380719e-05	8.243606e-03	1.439407e+03	-1.879397e+07	3.422986e+14	1.383888e+04	1.168766e+13	1.156626e+13	2.513393e-01	2.487286e-01	1.168766e+13	1.156626e+13
2.572919e-05	8.452294e-03	1.405833e+03	-1.746825e+07	3.100692e+14	1.317127e+04	1.038788e+13	1.027741e+13	2.513706e-01	2.486975e-01	1.038787e+13	1.027741e+13
2.774867e-05	8.666265e-03	1.373065e+03	-1.622596e+07	2.808539e+14	1.253542e+04	9.232783e+12	9.132271e+12	2.514026e-01	2.486657e-01	9.232781e+12	9.132269e+12
2.987062e-05	8.885653e-03	1.341074e+03	-1.507634e+07	2.543856e+14	1.193012e+04	8.206833e+12	8.115370e+12	2.514353e-01	2.486331e-01	8.206831e+12	8.115368e+12
3.210028e-05	9.110594e-03	1.309866e+03	-1.399646e+07	2.304021e+14	1.135381e+04	7.295266e+12	7.212033e+12	2.514688e-01	2.485998e-01	7.295264e+12	7.212031e+12
3.444304e-05	9.341230e-03	1.279373e+03	-1.301616e+07	2.086937e+14	1.080571e+04	6.485924e+12	6.410172e+12	2.515031e-01	2.485657e-01	6.485922e+12	6.410171e+12
3.690467e-05	9.577704e-03	1.249604e+03	-1.209291e+07	1.890232e+14	1.028386e+04	5.766107e+12	5.697167e+12	2.515382e-01	2.485308e-01	5.766105e+12	5.697165e+12
3.949112e-05	9.820165e-03	1.220547e+03	-1.123444e+07	1.712206e+14	9.787606e+03	5.126509e+12	5.063765e+12	2.515741e-01	2.484950e-01	5.126508e+12	5.063764e+12
4.220862e-05	1.006876e-02	1.192194e+03	-1.043351e+07	1.551045e+14	9.315598e+03	4.558217e+12	4.501108e+12	2.516108e-01	2.484585e-01	4.558215e+12	4.501107e+12
4.506370e-05	1.032366e-02	1.164493e+03	-9.702251e+06	1.405164e+14	8.866700e+03	4.053421e+12	4.001437e+12	2.516484e-01	2.484211e-01	4.053419e+12	4.001436e+12
4.806334e-05	1.058500e-02	1.137415e+03	-9.027266e+06	1.272984e+14	8.439368e+03	3.604444e+12	3.557125e+12	2.516869e-01	2.483828e-01	3.604442e+12	3.557124e+12
5.121501e-05	1.085296e-02	1.111011e+03	-8.377896e+06	1.153142e+14	8.032299e+03	3.204906e+12	3.161838e+12	2.517264e-01	2.483436e-01	3.204905e+12	3.161837e+12
5.452617e-05	1.112770e-02	1.085175e+03	-7.802438e+06	1.044723e+14	7.645380e+03	2.850237e+12	2.811031e+12	2.517667e-01	2.483035e-01	2.850236e+12	2.811030e+12
5.800531e-05	1.140940e-02	1.059996e+03	-7.237287e+06	9.462830e+13	7.276273e+03	2.534316e+12	2.498632e+12	2.518080e-01	2.482624e-01	2.534315e+12	2.498631e+12
6.166069e-05	1.169823e-02	1.035404e+03	-6.727561e+06	8.572316e+13	6.925443e+03	2.254004e+12	2.221518e+12	2.518503e-01	2.482205e-01	2.254003e+12	2.221517e+12
6.550125e-05	1.199438e-02	1.011380e+03	-6.255238e+06	7.765565e+13	6.591511e+03	2.004737e+12	1.975163e+12	2.518935e-01	2.481775e-01	2.004737e+12	1.975162e+12
6.953636e-05	1.229802e-02	9.879114e+02	-5.816198e+06	7.034797e+13	6.273707e+03	1.783023e+12	1.756099e+12	2.519378e-01	2.481335e-01	1.783022e+12	1.756098e+12
7.377589e-05	1.260934e-02	9.649953e+02	-5.405356e+06	6.372760e+13	5.971209e+03	1.585814e+12	1.561303e+12	2.519831e-01	2.480885e-01	1.585813e+12	1.561303e+12
7.823008e-05	1.292855e-02	9.425928e+02	-5.029533e+06	5.773326e+13	5.683443e+03	1.410483e+12	1.388169e+12	2.520295e-01	2.480424e-01	1.410482e+12	1.388168e+12
8.290996e-05	1.325584e-02	9.207109e+02	-4.675736e+06	5.229909e+13	5.409356e+03	1.254423e+12	1.234110e+12	2.520771e-01	2.479952e-01	1.254422e+12	1.234109e+12
8.782698e-05	1.359141e-02	8.993409e+02	-4.346135e+06	4.737606e+13	5.148467e+03	1.115639e+12	1.097147e+12	2.521258e-01	2.479468e-01	1.115638e+12	1.097147e+12
9.299317e-05	1.393548e-02	8.784757e+02	-4.038797e+06	4.291632e+13	4.900154e+03	9.922345e+11	9.754010e+11	2.521756e-01	2.478974e-01	9.922339e+11	9.754005e+11
9.842113e-05	1.428826e-02	8.581164e+02	-3.750823e+06	3.887673e+13	4.663837e+03	8.825289e+11	8.672041e+11	2.522266e-01	2.478468e-01	8.825284e+11	8.672036e+11
1.041239e-04	1.464996e-02	8.382114e+02	-3.490424e+06	3.522067e+13	4.439124e+03	7.850560e+11	7.711033e+11	2.522787e-01	2.477950e-01	7.850555e+11	7.711028e+11
1.101154e-04	1.502083e-02	8.187788e+02	-3.243332e+06	3.190661e+13	4.225117e+03	6.982796e+11	6.855771e+11	2.523322e-01	2.477420e-01	6.982791e+11	6.855766e+11
1.164103e-04	1.540108e-02	7.998029e+02	-3.014474e+06	2.890570e+13	4.021520e+03	6.211380e+11	6.095732e+11	2.523869e-01	2.476877e-01	6.211376e+11	6.095728e+11
1.230239e-04	1.579096e-02	7.812666e+02	-2.802776e+06	2.618733e+13	3.827754e+03	5.525432e+11	5.420137e+11	2.524428e-01	2.476322e-01	5.525428e+11	5.420133e+11
1.299723e-04	1.619071e-02	7.631730e+02	-2.603982e+06	2.372415e+13	3.643291e+03	4.915252e+11	4.819385e+11	2.525002e-01	2.475754e-01	4.915248e+11	4.819381e+11
1.372724e-04	1.660058e-02	7.454948e+02	-2.421660e+06	2.149376e+13	3.467806e+03	4.372856e+11	4.285566e+11	2.525588e-01	2.475173e-01	4.372852e+11	4.285562e+11
1.449420e-04	1.702083e-02	7.282357e+02	-2.250314e+06	1.947224e+13	3.300703e+03	3.890238e+11	3.810759e+11	2.526188e-01	2.474578e-01	3.890235e+11	3.810756e+11
1.529997e-04	1.745171e-02	7.113771e+02	-2.092226e+06	1.764149e+13	3.141711e+03	3.461134e+11	3.388763e+11	2.526803e-01	2.473969e-01	3.461130e+11	3.388760e+11
1.614653e-04	1.789351e-02	6.949093e+02	-1.945273e+06	1.598275e+13	2.990365e+03	3.079397e+11	3.013499e+11	2.527432e-01	2.473346e-01	3.079394e+11	3.013496e+11
1.703594e-04	1.834648e-02	6.788296e+02	-1.807916e+06	1.447981e+13	2.846295e+03	2.739789e+11	2.679784e+11	2.528075e-01	2.472708e-01	2.739786e+11	2.679782e+11
1.797035e-04	1.881093e-02	6.631283e+02	-1.680329e+06	1.311851e+13	2.709198e+03	2.437772e+11	2.383132e+11	2.528734e-01	2.472055e-01	2.437770e+11	2.383130e+11
1.895205e-04	1.928713e-02	6.477997e+02	-1.561441e+06	1.188516e+13	2.578701e+03	2.169166e+11	2.119409e+11	2.529409e-01	2.471388e-01	2.169164e+11	2.119406e+11
1.998342e-04	1.977538e-02	6.328307e+02	-1.451361e+06	1.076793e+13	2.454509e+03	1.930308e+11	1.884994e+11	2.530099e-01	2.470705e-01	1.930306e+11	1.884992e+11
2.106699e-04	2.027600e-02	6.182195e+02	-1.348440e+06	9.755616e+12	2.336285e+03	1.717836e+11	1.676568e+11	2.530805e-01	2.470006e-01	1.717834e+11	1.676566e+11
2.220536e-04	2.078929e-02	6.039505e+02	-1.253456e+06	8.838748e+12	2.223791e+03	1.528907e+11	1.491320e+11	2.531527e-01	2.469291e-01	1.528906e+11	1.491319e+11
2.340134e-04	2.131557e-02	5.900208e+02	-1.164714e+06	8.007887e+12	2.116691e+03	1.360820e+11	1.326585e+11	2.532266e-01	2.468560e-01	1.360818e+11	1.326583e+11
2.465782e-04	2.185518e-02	5.764203e+02	-1.082423e+06	7.255203e+12	2.014760e+03	1.211323e+11	1.180139e+11	2.533022e-01	2.467812e-01	1.211321e+11	1.180137e+11
2.597788e-04	2.240845e-02	5.631407e+02	-1.005992e+06	6.573216e+12	1.917730e+03	1.078331e+11	1.049924e+11	2.533796e-01	2.467048e-01	1.078329e+11	1.049923e+11
2.736474e-04	2.297572e-02	5.501764e+02	-9.347965e+05	5.955251e+12	1.825360e+03	9.600092e+10	9.341312e+10	2.534588e-01	2.466265e-01	9.600078e+10	9.341297e+10
2.882177e-04	2.355735e-02	5.375175e+02	-8.688121e+05	5.395420e+12	1.737445e+03	8.547499e+10	8.311738e+10	2.535397e-01	2.465465e-01	8.547486e+10	8.311725e+10
3.035253e-04	2.415371e-02	5.251577e+02	-8.074266e+05	4.888172e+12	1.653757e+03	7.610865e+10	7.396065e+10	2.536226e-01	2.464647e-01	7.610852e+10	7.396053e+10
3.196076e-04	2.476516e-02	5.130895e+02	-7.504012e+05	4.428596e+12	1.574097e+03	6.777421e+10	6.581707e+10	2.537074e-01	2.463810e-01	6.777409e+10	6.581695e+10
3.365039e-04	2.539210e-02	5.013047e+02	-6.974853e+05	4.012207e+12	1.498270e+03	6.035726e+10	5.857392e+10	2.537941e-01	2.462954e-01	6.035715e+10	5.857381e+10
3.542553e-04	2.603490e-02	4.897973e+02	-6.482482e+05	3.634910e+12	1.426085e+03	5.375562e+10	5.213057e+10	2.538828e-01	2.462078e-01	5.375551e+10	5.213047e+10
3.729054e-04	2.669398e-02	4.785591e+02	-6.025814e+05	3.293077e+12	1.357374e+03	4.787976e+10	4.639886e+10	2.539735e-01	2.461183e-01	4.787966e+10	4.639876e+10
3.924998e-04	2.736974e-02	4.675847e+02	-5.600795e+05	2.983324e+12	1.291959e+03	4.264875e+10	4.129917e+10	2.540664e-01	2.460267e-01	4.264866e+10	4.129908e+10
4.130864e-04	2.806261e-02	4.568659e+02	-5.206668e+05	2.702681e+12	1.229691e+03	3.799198e+10	3.676200e+10	2.541614e-01	2.459330e-01	3.799189e+10	3.676191e+10
4.347156e-04	2.877301e-02	4.463971e+02	-4.840134e+05	2.448380e+12	1.170410e+03	3.384544e+10	3.272442e+10	2.542586e-01	2.458372e-01	3.384536e+10	3.272434e+10
4.574406e-04	2.950141e-02	4.361712e+02	-4.499820e+05	2.217969e+12	1.113977e+03	3.015313e+10	2.913139e+10	2.543581e-01	2.457392e-01	3.015306e+10	2.913132e+10
4.813171e-04	3.024824e-02	4.261818e+02	-4.183799e+05	2.009199e+12	1.060254e+03	2.686484e+10	2.593356e+10	2.544599e-01	2.456389e-01	2.686477e+10	2.593349e+10
5.064037e-04	3.101398e-02	4.164227e+02	-3.890165e+05	1.820036e+12	1.009110e+03	2.393597e+10	2.308712e+10	2.545641e-01	2.455363e-01	2.393591e+10	2.308705e+10
5.327620e-04	3.179910e-02	4.068877e+02	-3.617466e+05	1.648644e+12	9.604216e+02	2.132701e+10	2.055328e+10	2.546707e-01	2.454314e-01	2.132695e+10	2.055322e+10
5.604570e-04	3.260410e-02	3.975704e+02	-3.364245e+05	1.493353e+12	9.140706e+02	1.900275e+10	1.829749e+10	2.547798e-01	2.453240e-01	1.900269e+10	1.829743e+10
5.895567e-04	3.342947e-02	3.884659e+02	-3.128739e+05	1.352647e+12	8.699429e+02	1.693184e+10	1.628899e+10	2.548915e-01	2.452142e-01	1.693178e+10	1.628894e+10
6.201329e-04	3.427574e-02	3.795675e+02	-2.910228e+05	1.225168e+12	8.279351e+02	1.508664e+10	1.450069e+10	2.550059e-01	2.451017e-01	1.508659e+10	1.450064e+10
6.522611e-04	3.514344e-02	3.708702e+02	-2.707059e+05	1.109664e+12	7.879420e+02	1.344226e+10	1.290818e+10	2.551230e-01	2.449867e-01	1.344221e+10	1.290814e+10
6.860204e-04	3.603310e-02	3.623685e+02	-2.518331e+05	1.005019e+12	7.498692e+02	1.197680e+10	1.149002e+10	2.552429e-01	2.448689e-01	1.197675e+10	1.148998e+10
7.214945e-04	3.694528e-02	3.540570e+02	-2.342981e+05	9.102111e+11	7.136242e+02	1.067067e+10	1.022701e+10	2.553657e-01	2.447483e-01	1.067063e+10	1.022697e+10
7.587709e-04	3.788055e-02	3.459307e+02	-2.180016e+05	8.243185e+11	6.791192e+02	9.506465e+09	9.102135e+09	2.554915e-01	2.446249e-01	9.506426e+09	9.102097e+09
7.979419e-04	3.883951e-02	3.379846e+02	-2.028565e+05	7.465047e+11	6.462711e+02	8.468710e+09	8.100244e+09	2.556203e-01	2.444985e-01	8.468674e+09	8.100208e+09
8.391047e-04	3.982273e-02	3.302139e+02	-1.887790e+05	6.760116e+11	6.150006e+02	7.543629e+09	7.207869e+09	2.557523e-01	2.443690e-01	7.543594e+09	7.207836e+09
8.823612e-04	4.083085e-02	3.226141e+02	-1.756923e+05	6.121524e+11	5.852323e+02	6.718962e+09	6.413033e+09	2.558876e-01	2.442364e-01	6.718930e+09	6.413002e+09
9.278189e-04	4.186449e-02	3.151806e+02	-1.635255e+05	5.543047e+11	5.568943e+02	5.983798e+09	5.705076e+09	2.560262e-01	2.441006e-01	5.983768e+09	5.705048e+09
9.755906e-04	4.292429e-02	3.079091e+02	-1.522122e+05	5.019045e+11	5.299184e+02	5.328421e+09	5.074515e+09	2.561683e-01	2.439615e-01	5.328393e+09	5.074488e+09
1.025795e-03	4.401093e-02	3.007956e+02	-1.416909e+05	4.544404e+11	5.042396e+02	4.744179e+09	4.512906e+09	2.563139e-01	2.438189e-01	4.744153e+09	4.512881e+09
1.078557e-03	4.512507e-02	2.938360e+02	-1.319051e+05	4.114491e+11	4.797959e+02	4.223365e+09	4.012736e+09	2.564633e-01	2.436728e-01	4.223341e+09	4.012712e+09
1.134009e-03	4.626741e-02	2.870265e+02	-1.228016e+05	3.725106e+11	4.565284e+02	3.759114e+09	3.567313e+09	2.566164e-01	2.435231e-01	3.759092e+09	3.567291e+09
1.192287e-03	4.743868e-02	2.803637e+02	-1.143256e+05	3.372436e+11	4.343805e+02	3.345309e+09	3.170680e+09	2.567735e-01	2.433696e-01	3.345288e+09	3.170659e+09
1.253539e-03	4.863960e-02	2.738433e+02	-1.064536e+05	3.053057e+11	4.133005e+02	2.976517e+09	2.817546e+09	2.569346e-01	2.432122e-01	2.976497e+09	2.817528e+09
1.317915e-03	4.987091e-02	2.674628e+02	-9.911246e+04	2.763802e+11	3.932348e+02	2.647827e+09	2.503138e+09	2.570999e-01	2.430509e-01	2.647809e+09	2.503121e+09
1.385578e-03	5.113340e-02	2.612185e+02	-9.228647e+04	2.501876e+11	3.741376e+02	2.354955e+09	2.223288e+09	2.572696e-01	2.428854e-01	2.354938e+09	2.223271e+09
1.456695e-03	5.242785e-02	2.551073e+02	-8.593087e+04	2.264690e+11	3.559614e+02	2.094013e+09	1.974217e+09	2.574436e-01	2.427157e-01	2.093997e+09	1.974202e+09
1.531446e-03	5.375507e-02	2.491264e+02	-8.001187e+04	2.049918e+11	3.386622e+02	1.861556e+09	1.752584e+09	2.576223e-01	2.425416e-01	1.861541e+09	1.752570e+09
1.610016e-03	5.511588e-02	2.432729e+02	-7.449991e+04	1.855454e+11	3.221985e+02	1.654512e+09	1.555406e+09	2.578057e-01	2.423630e-01	1.654498e+09	1.555393e+09
1.692602e-03	5.651115e-02	2.375442e+02	-6.936632e+04	1.679384e+11	3.065304e+02	1.470138e+09	1.380024e+09	2.579939e-01	2.421798e-01	1.470125e+09	1.380012e+09
1.779410e-03	5.794173e-02	2.319377e+02	-6.458434e+04	1.519977e+11	2.916198e+02	1.305985e+09	1.224063e+09	2.581872e-01	2.419918e-01	1.305973e+09	1.224052e+09
1.870659e-03	5.940854e-02	2.264510e+02	-6.012936e+04	1.375661e+11	2.774305e+02	1.159866e+09	1.085409e+09	2.583857e-01	2.417989e-01	1.159855e+09	1.085399e+09
1.966576e-03	6.091247e-02	2.210817e+02	-5.597860e+04	1.245014e+11	2.639281e+02	1.029831e+09	9.621736e+08	2.585895e-01	2.416009e-01	1.029820e+09	9.621640e+08
2.067401e-03	6.245448e-02	2.158277e+02	-5.211091e+04	1.126747e+11	2.510797e+02	9.141376e+08	8.526729e+08	2.587989e-01	2.413978e-01	9.141280e+08	8.526640e+08
2.173386e-03	6.403552e-02	2.106866e+02	-4.850673e+04	1.019689e+11	2.388540e+02	8.112317e+08	7.554051e+08	2.590138e-01	2.411893e-01	8.112228e+08	7.553968e+08
2.284798e-03	6.565659e-02	2.056566e+02	-4.514788e+04	9.227843e+10	2.272211e+02	7.197244e+08	6.690300e+08	2.592347e-01	2.409753e-01	7.197162e+08	6.690224e+08
2.401915e-03	6.731869e-02	2.007357e+02	-4.201755e+04	8.350717e+10	2.161526e+02	6.383760e+08	5.923524e+08	2.594615e-01	2.407556e-01	6.383685e+08	5.923454e+08
2.525030e-03	6.902287e-02	1.959218e+02	-3.910010e+04	7.556826e+10	2.056214e+02	5.660798e+08	5.243057e+08	2.596945e-01	2.405302e-01	5.660728e+08	5.242992e+08
2.654452e-03	7.077019e-02	1.912133e+02	-3.638107e+04	6.838297e+10	1.956016e+02	5.018474e+08	4.639387e+08	2.599338e-01	2.402988e-01	5.018409e+08	4.639327e+08
2.790505e-03	7.256175e-02	1.866084e+02	-3.384700e+04	6.187996e+10	1.860688e+02	4.447965e+08	4.104028e+08	2.601796e-01	2.400613e-01	4.447905e+08	4.103973e+08
2.933529e-03	7.439866e-02	1.821052e+02	-3.148540e+04	5.599462e+10	1.769993e+02	3.941396e+08	3.629415e+08	2.604321e-01	2.398176e-01	3.941341e+08	3.629364e+08
3.083882e-03	7.628207e-02	1.777022e+02	-2.928467e+04	5.066845e+10	1.683710e+02	3.491738e+08	3.208799e+08	2.606915e-01	2.395674e-01	3.491688e+08	3.208753e+08
3.241941e-03	7.821316e-02	1.733976e+02	-2.723402e+04	4.584842e+10	1.601624e+02	3.092718e+08	2.836167e+08	2.609580e-01	2.393107e-01	3.092671e+08	2.836125e+08
3.408101e-03	8.019313e-02	1.691898e+02	-2.532341e+04	4.148656e+10	1.523534e+02	2.738739e+08	2.506158e+08	2.612317e-01	2.390473e-01	2.738696e+08	2.506119e+08
3.582779e-03	8.222323e-02	1.650773e+02	-2.354348e+04	3.753938e+10	1.449246e+02	2.424809e+08	2.213996e+08	2.615128e-01	2.387769e-01	2.424769e+08	2.213960e+08
3.766412e-03	8.430472e-02	1.610584e+02	-2.188553e+04	3.396754e+10	1.378575e+02	2.146477e+08	1.955427e+08	2.618015e-01	2.384995e-01	2.146441e+08	1.955394e+08
3.959464e-03	8.643891e-02	1.571316e+02	-2.034084e+04	3.073356e+10	1.311309e+02	1.899776e+08	1.726662e+08	2.620981e-01	2.382149e-01	1.899742e+08	1.726632e+08
4.162413e-03	8.862712e-02	1.532952e+02	-1.890319e+04	2.780935e+10	1.247366e+02	1.681169e+08	1.524331e+08	2.624026e-01	2.379229e-01	1.681138e+08	1.524303e+08
4.375771e-03	9.087073e-02	1.495477e+02	-1.756425e+04	2.516192e+10	1.186507e+02	1.487506e+08	1.345434e+08	2.627153e-01	2.376234e-01	1.487478e+08	1.345408e+08
4.600066e-03	9.317113e-02	1.458875e+02	-1.631846e+04	2.276784e+10	1.128650e+02	1.315984e+08	1.187304e+08	2.630365e-01	2.373161e-01	1.315958e+08	1.187280e+08
4.835861e-03	9.552977e-02	1.423131e+02	-1.515903e+04	2.060143e+10	1.073612e+02	1.164106e+08	1.047569e+08	2.633662e-01	2.370010e-01	1.164082e+08	1.047547e+08
5.083743e-03	9.794812e-02	1.388229e+02	-1.408022e+04	1.864109e+10	1.021255e+02	1.029651e+08	9.241222e+07	2.637048e-01	2.366778e-01	1.029628e+08	9.241022e+07
5.344334e-03	1.004277e-01	1.354152e+02	-1.307663e+04	1.686722e+10	9.714495e+01	9.106439e+07	8.150934e+07	2.640524e-01	2.363463e-01	9.106234e+07	8.150750e+07
5.618286e-03	1.029700e-01	1.320886e+02	-1.214320e+04	1.526211e+10	9.240720e+01	8.053297e+07	7.188215e+07	2.644092e-01	2.360065e-01	8.053109e+07	7.188047e+07
5.906284e-03	1.055767e-01	1.288414e+02	-1.127521e+04	1.380973e+10	8.790043e+01	7.121485e+07	6.338331e+07	2.647756e-01	2.356580e-01	7.121311e+07	6.338176e+07
6.209048e-03	1.082494e-01	1.256719e+02	-1.046824e+04	1.249553e+10	8.361340e+01	6.297148e+07	5.588215e+07	2.651516e-01	2.353008e-01	6.296988e+07	5.588073e+07
6.527335e-03	1.109898e-01	1.225788e+02	-9.718153e+03	1.130639e+10	7.953542e+01	5.567990e+07	4.926285e+07	2.655376e-01	2.349346e-01	5.567842e+07	4.926154e+07
6.861984e-03	1.137995e-01	1.195603e+02	-9.019935e+03	1.022786e+10	7.564686e+01	4.923100e+07	4.342279e+07	2.659337e-01	2.345592e-01	4.922963e+07	4.342159e+07
7.213782e-03	1.166803e-01	1.166148e+02	-8.372505e+03	9.254977e+09	7.195917e+01	4.352797e+07	3.827111e+07	2.663403e-01	2.341745e-01	4.352672e+07	3.827001e+07
