t[s]	x	Tg[10^9K]	dTg/dt[10^9K/s]	rho_tot[g cm^-3]	H[s^-1]	n nue->p e	p e->n nue	n->p e nue	p e nue->n	n e->p nue	p nue->n e
6.781569e-07	5.126576e-03	2.264809e+03	-8.271029e+07	2.490592e+15	3.732930e+04	1.129832e+14	1.122365e+14	2.508620e-01	2.492042e-01	1.129832e+14	1.122365e+14
1.390670e-06	5.256355e-03	2.209411e+03	-7.775025e+07	2.256201e+15	3.552936e+04	9.998285e+13	9.930581e+13	2.508826e-01	2.491837e-01	9.998284e+13	9.930580e+13
2.139694e-06	5.389421e-03	2.156067e+03	-7.121835e+07	2.041602e+15	3.379746e+04	8.834603e+13	8.773285e+13	2.509039e-01	2.491624e-01	8.834602e+13	8.773284e+13
2.926695e-06	5.525855e-03	2.103443e+03	-6.686608e+07	1.849322e+15	3.216657e+04	7.819028e+13	7.763421e+13	2.509255e-01	2.491409e-01	7.819027e+13	7.763420e+13
3.754004e-06	5.665742e-03	2.052490e+03	-6.158904e+07	1.673508e+15	3.059936e+04	6.910895e+13	6.860521e+13	2.509478e-01	2.491186e-01	6.910894e+13	6.860520e+13
4.623489e-06	5.809171e-03	2.002764e+03	-5.719021e+07	1.515090e+15	2.911506e+04	6.113993e+13	6.068326e+13	2.509706e-01	2.490960e-01	6.113993e+13	6.068325e+13
5.537254e-06	5.956231e-03	1.954286e+03	-5.305371e+07	1.371812e+15	2.770421e+04	5.408899e+13	5.367498e+13	2.509939e-01	2.490727e-01	5.408898e+13	5.367498e+13
6.497531e-06	6.107014e-03	1.907013e+03	-4.922802e+07	1.242137e+15	2.636230e+04	4.785653e+13	4.748118e+13	2.510177e-01	2.490489e-01	4.785652e+13	4.748117e+13
7.506674e-06	6.261614e-03	1.860912e+03	-4.568333e+07	1.124754e+15	2.508576e+04	4.234592e+13	4.200559e+13	2.510422e-01	2.490246e-01	4.234592e+13	4.200559e+13
8.567159e-06	6.420127e-03	1.815956e+03	-4.239194e+07	1.018484e+15	2.387127e+04	3.747277e+13	3.716417e+13	2.510672e-01	2.489996e-01	3.747276e+13	3.716417e+13
9.681584e-06	6.582653e-03	1.772116e+03	-3.933834e+07	9.222767e+14	2.271586e+04	3.316328e+13	3.288344e+13	2.510929e-01	2.489741e-01	3.316328e+13	3.288344e+13
1.085268e-05	6.749294e-03	1.729369e+03	-3.650165e+07	8.351753e+14	2.161660e+04	2.935198e+13	2.909820e+13	2.511191e-01	2.489479e-01	2.935198e+13	2.909820e+13
1.208332e-05	6.920153e-03	1.687691e+03	-3.386733e+07	7.563186e+14	2.057079e+04	2.598134e+13	2.575118e+13	2.511460e-01	2.489211e-01	2.598134e+13	2.575117e+13
1.337650e-05	7.095338e-03	1.647054e+03	-3.142400e+07	6.849267e+14	1.957585e+04	2.300038e+13	2.279162e+13	2.511735e-01	2.488937e-01	2.300038e+13	2.279162e+13
1.473539e-05	7.274957e-03	1.607436e+03	-2.915489e+07	6.202902e+14	1.862927e+04	2.036378e+13	2.017441e+13	2.512017e-01	2.488657e-01	2.036378e+13	2.017440e+13
1.616330e-05	7.459123e-03	1.568808e+03	-2.705236e+07	5.617711e+14	1.772875e+04	1.803172e+13	1.785992e+13	2.512306e-01	2.488369e-01	1.803171e+13	1.785992e+13
1.766372e-05	7.647952e-03	1.531152e+03	-2.509673e+07	5.087851e+14	1.687197e+04	1.596864e+13	1.581277e+13	2.512601e-01	2.488075e-01	1.596864e+13	1.581277e+13
1.924031e-05	7.841561e-03	1.494440e+03	-2.328549e+07	4.608145e+14	1.605689e+04	1.414370e+13	1.400227e+13	2.512903e-01	2.487774e-01	1.414370e+13	1.400226e+13
2.089691e-05	8.040071e-03	1.458647e+03	-2.160670e+07	4.173787e+14	1.528142e+04	1.252904e+13	1.240069e+13	2.513212e-01	2.487466e-01	1.252904e+13	1.240069e+13
2.263755e-05	8.243606e-03	1.423751e+03	-2.004733e+07	3.780458e+14	1.454356e+04	1.110019e+13	1.098370e+13	2.513529e-01	2.487151e-01	1.110019e+13	1.098370e+13
2.446648e-05	8.452294e-03	1.389759e+03	-1.858614e+07	3.424260e+14	1.384146e+04	9.835730e+12	9.729994e+12	2.513853e-01	2.486829e-01	9.835728e+12	9.729993e+12
2.638810e-05	8.666265e-03	1.356599e+03	-1.725596e+07	3.101900e+14	1.317384e+04	8.717456e+12	8.621462e+12	2.514184e-01	2.486499e-01	8.717454e+12	8.621460e+12
2.840712e-05	8.885653e-03	1.324286e+03	-1.600438e+07	2.809845e+14	1.253833e+04	7.726970e+12	7.639815e+12	2.514523e-01	2.486161e-01	7.726968e+12	7.639813e+12
3.052842e-05	9.110594e-03	1.292786e+03	-1.484963e+07	2.545435e+14	1.193382e+04	6.850469e+12	6.771326e+12	2.514870e-01	2.485816e-01	6.850467e+12	6.771324e+12
3.275713e-05	9.341230e-03	1.262072e+03	-1.378066e+07	2.305975e+14	1.135863e+04	6.074423e+12	6.002546e+12	2.515225e-01	2.485463e-01	6.074422e+12	6.002545e+12
3.509867e-05	9.577704e-03	1.232126e+03	-1.278908e+07	2.089092e+14	1.081128e+04	5.387119e+12	5.321833e+12	2.515588e-01	2.485102e-01	5.387118e+12	5.321832e+12
3.755876e-05	9.820165e-03	1.202968e+03	-1.185237e+07	1.892620e+14	1.029035e+04	4.778320e+12	4.719013e+12	2.515960e-01	2.484733e-01	4.778318e+12	4.719012e+12
4.014322e-05	1.006876e-02	1.174522e+03	-1.100683e+07	1.714835e+14	9.795118e+03	4.239706e+12	4.185817e+12	2.516339e-01	2.484355e-01	4.239705e+12	4.185816e+12
4.285840e-05	1.032366e-02	1.146803e+03	-1.020894e+07	1.553696e+14	9.323555e+03	3.762155e+12	3.713185e+12	2.516728e-01	2.483969e-01	3.762154e+12	3.713184e+12
4.571083e-05	1.058500e-02	1.119807e+03	-9.464109e+06	1.407777e+14	8.874940e+03	3.339206e+12	3.294698e+12	2.517125e-01	2.483574e-01	3.339205e+12	3.294697e+12
4.870728e-05	1.085296e-02	1.093467e+03	-8.790247e+06	1.275697e+14	8.448358e+03	2.964732e+12	2.924270e+12	2.517530e-01	2.483171e-01	2.964731e+12	2.924269e+12
5.185509e-05	1.112770e-02	1.067798e+03	-8.154739e+06	1.155969e+14	8.042139e+03	2.632512e+12	2.595724e+12	2.517945e-01	2.482758e-01	2.632511e+12	2.595723e+12
5.516179e-05	1.140940e-02	1.042768e+03	-7.569451e+06	1.047549e+14	7.655712e+03	2.338080e+12	2.304627e+12	2.518370e-01	2.482337e-01	2.338079e+12	2.304626e+12
5.863536e-05	1.169823e-02	1.018369e+03	-7.024195e+06	9.493129e+13	7.287913e+03	2.076956e+12	2.046531e+12	2.518803e-01	2.481906e-01	2.076955e+12	2.046530e+12
6.228418e-05	1.199438e-02	9.945800e+02	-6.519602e+06	8.603192e+13	6.937904e+03	1.845401e+12	1.817725e+12	2.519247e-01	2.481465e-01	1.845400e+12	1.817724e+12
6.611704e-05	1.229802e-02	9.713903e+02	-6.050214e+06	7.796812e+13	6.604760e+03	1.639993e+12	1.614814e+12	2.519700e-01	2.481015e-01	1.639992e+12	1.614813e+12
7.014316e-05	1.260934e-02	9.487834e+02	-5.615079e+06	7.066257e+13	6.287720e+03	1.457780e+12	1.434868e+12	2.520164e-01	2.480555e-01	1.457779e+12	1.434868e+12
7.437229e-05	1.292855e-02	9.267826e+02	-5.202188e+06	6.404140e+13	5.985892e+03	1.296104e+12	1.275252e+12	2.520637e-01	2.480084e-01	1.296103e+12	1.275251e+12
7.881434e-05	1.325584e-02	9.053113e+02	-4.833647e+06	5.804926e+13	5.698976e+03	1.152861e+12	1.133877e+12	2.521120e-01	2.479605e-01	1.152861e+12	1.133876e+12
8.348018e-05	1.359141e-02	8.843965e+02	-4.482538e+06	5.261426e+13	5.425631e+03	1.025563e+12	1.008278e+12	2.521614e-01	2.479114e-01	1.025562e+12	1.008277e+12
8.838084e-05	1.393548e-02	8.640060e+02	-4.160764e+06	4.769285e+13	5.165652e+03	9.126291e+11	8.968868e+11	2.522119e-01	2.478614e-01	9.126287e+11	8.968864e+11
9.352807e-05	1.428826e-02	8.441234e+02	-3.862793e+06	4.323311e+13	4.918206e+03	8.123283e+11	7.979883e+11	2.522634e-01	2.478102e-01	8.123279e+11	7.979879e+11
9.893429e-05	1.464996e-02	8.247269e+02	-3.587796e+06	3.918999e+13	4.682589e+03	7.232155e+11	7.101506e+11	2.523160e-01	2.477580e-01	7.232151e+11	7.101503e+11
1.046127e-04	1.502083e-02	8.058220e+02	-3.329299e+06	3.552355e+13	4.458171e+03	6.439934e+11	6.320886e+11	2.523699e-01	2.477046e-01	6.439930e+11	6.320883e+11
1.105767e-04	1.540108e-02	7.873841e+02	-3.091508e+06	3.220188e+13	4.244623e+03	5.736147e+11	5.627646e+11	2.524248e-01	2.476501e-01	5.736144e+11	5.627643e+11
1.168408e-04	1.579096e-02	7.694098e+02	-2.869416e+06	2.919097e+13	4.041315e+03	5.110392e+11	5.011486e+11	2.524809e-01	2.475944e-01	5.110389e+11	5.011483e+11
1.234198e-04	1.619071e-02	7.518766e+02	-2.665023e+06	2.646308e+13	3.847855e+03	4.554158e+11	4.463978e+11	2.525383e-01	2.475376e-01	4.554155e+11	4.463975e+11
1.303296e-04	1.660058e-02	7.347854e+02	-2.473476e+06	2.399026e+13	3.663667e+03	4.059314e+11	3.977078e+11	2.525968e-01	2.474796e-01	4.059311e+11	3.977075e+11
1.375865e-04	1.702083e-02	7.181174e+02	-2.296834e+06	2.174981e+13	3.488399e+03	3.619303e+11	3.544293e+11	2.526566e-01	2.474203e-01	3.619300e+11	3.544291e+11
1.452080e-04	1.745171e-02	7.018623e+02	-2.132807e+06	1.971894e+13	3.321546e+03	3.227782e+11	3.159350e+11	2.527177e-01	2.473598e-01	3.227780e+11	3.159348e+11
1.532123e-04	1.789351e-02	6.860315e+02	-1.977790e+06	1.787800e+13	3.162700e+03	2.879341e+11	2.816898e+11	2.527800e-01	2.472981e-01	2.879339e+11	2.816896e+11
1.616180e-04	1.834648e-02	6.705731e+02	-1.839036e+06	1.621117e+13	3.011658e+03	2.569583e+11	2.512586e+11	2.528435e-01	2.472351e-01	2.569581e+11	2.512584e+11
1.704456e-04	1.881093e-02	6.554941e+02	-1.708162e+06	1.469870e+13	2.867728e+03	2.293423e+11	2.241393e+11	2.529085e-01	2.471708e-01	2.293421e+11	2.241391e+11
1.797161e-04	1.928713e-02	6.407911e+02	-1.585992e+06	1.332759e+13	2.730702e+03	2.047440e+11	1.999934e+11	2.529748e-01	2.471051e-01	2.047438e+11	1.999932e+11
1.894516e-04	1.977538e-02	6.264381e+02	-1.474308e+06	1.208518e+13	2.600309e+03	1.828375e+11	1.784990e+11	2.530425e-01	2.470382e-01	1.828373e+11	1.784988e+11
1.996755e-04	2.027600e-02	6.124334e+02	-1.369801e+06	1.095790e+13	2.476066e+03	1.633021e+11	1.593395e+11	2.531117e-01	2.469697e-01	1.633020e+11	1.593393e+11
2.104129e-04	2.078929e-02	5.987618e+02	-1.273266e+06	9.934896e+12	2.357654e+03	1.458868e+11	1.422668e+11	2.531823e-01	2.468999e-01	1.458866e+11	1.422666e+11
2.216899e-04	2.131557e-02	5.854056e+02	-1.184364e+06	9.006849e+12	2.244838e+03	1.303512e+11	1.270438e+11	2.532544e-01	2.468286e-01	1.303511e+11	1.270437e+11
2.335345e-04	2.185518e-02	5.724039e+02	-1.097706e+06	8.164485e+12	2.137287e+03	1.164810e+11	1.134590e+11	2.533281e-01	2.467557e-01	1.164809e+11	1.134589e+11
2.459736e-04	2.240845e-02	5.596905e+02	-1.022050e+06	7.402600e+12	2.035123e+03	1.041386e+11	1.013762e+11	2.534032e-01	2.466815e-01	1.041384e+11	1.013761e+11
2.590378e-04	2.297572e-02	5.472880e+02	-9.493417e+05	6.711100e+12	1.937739e+03	9.310421e+10	9.057923e+10	2.534800e-01	2.466056e-01	9.310408e+10	9.057910e+10
2.727583e-04	2.355735e-02	5.352002e+02	-8.810054e+05	6.084486e+12	1.845060e+03	8.326128e+10	8.095278e+10	2.535583e-01	2.465282e-01	8.326116e+10	8.095266e+10
2.871669e-04	2.415371e-02	5.233634e+02	-8.215077e+05	5.517210e+12	1.756945e+03	7.448706e+10	7.237585e+10	2.536382e-01	2.464493e-01	7.448694e+10	7.237574e+10
3.022999e-04	2.476516e-02	5.118240e+02	-7.625327e+05	5.001647e+12	1.672842e+03	6.662783e+10	6.469730e+10	2.537200e-01	2.463685e-01	6.662772e+10	6.469719e+10
3.181926e-04	2.539210e-02	5.005727e+02	-7.079567e+05	4.534891e+12	1.592876e+03	5.961892e+10	5.785311e+10	2.538034e-01	2.462862e-01	5.961882e+10	5.785301e+10
3.348821e-04	2.603490e-02	4.895646e+02	-6.595796e+05	4.112246e+12	1.516834e+03	5.336557e+10	5.174999e+10	2.538884e-01	2.462022e-01	5.336547e+10	5.174989e+10
3.524098e-04	2.669398e-02	4.788127e+02	-6.134276e+05	3.728313e+12	1.444291e+03	4.776653e+10	4.628845e+10	2.539754e-01	2.461164e-01	4.776643e+10	4.628835e+10
3.708180e-04	2.736974e-02	4.683119e+02	-5.704345e+05	3.380164e+12	1.375205e+03	4.276147e+10	4.140902e+10	2.540643e-01	2.460288e-01	4.276138e+10	4.140893e+10
3.901508e-04	2.806261e-02	4.580418e+02	-5.312335e+05	3.064624e+12	1.309444e+03	3.828731e+10	3.704966e+10	2.541550e-01	2.459393e-01	3.828722e+10	3.704958e+10
4.104553e-04	2.877301e-02	4.479962e+02	-4.947442e+05	2.778280e+12	1.246770e+03	3.428164e+10	3.314904e+10	2.542478e-01	2.458479e-01	3.428156e+10	3.314896e+10
4.317820e-04	2.950141e-02	4.382006e+02	-4.593118e+05	2.518345e+12	1.187015e+03	3.069509e+10	2.965863e+10	2.543426e-01	2.457544e-01	3.069501e+10	2.965856e+10
4.541808e-04	3.024824e-02	4.286033e+02	-4.284708e+05	2.283035e+12	1.130199e+03	2.749325e+10	2.654452e+10	2.544393e-01	2.456592e-01	2.749318e+10	2.654445e+10
4.777087e-04	3.101398e-02	4.192449e+02	-3.977619e+05	2.069185e+12	1.075965e+03	2.462108e+10	2.375278e+10	2.545384e-01	2.455616e-01	2.462101e+10	2.375271e+10
5.024199e-04	3.179910e-02	4.100760e+02	-3.710402e+05	1.875755e+12	1.024440e+03	2.205663e+10	2.126172e+10	2.546394e-01	2.454623e-01	2.205657e+10	2.126166e+10
5.283760e-04	3.260410e-02	4.011014e+02	-3.457631e+05	1.700132e+12	9.753035e+02	1.975593e+10	1.902832e+10	2.547428e-01	2.453605e-01	1.975587e+10	1.902825e+10
5.556407e-04	3.342947e-02	3.923222e+02	-3.219975e+05	1.540860e+12	9.284960e+02	1.769398e+10	1.702800e+10	2.548486e-01	2.452564e-01	1.769392e+10	1.702794e+10
5.842791e-04	3.427574e-02	3.837128e+02	-3.006252e+05	1.396570e+12	8.839545e+02	1.584720e+10	1.523764e+10	2.549568e-01	2.451500e-01	1.584714e+10	1.523758e+10
6.143645e-04	3.514344e-02	3.752878e+02	-2.800368e+05	1.265475e+12	8.414442e+02	1.418917e+10	1.363139e+10	2.550678e-01	2.450409e-01	1.418911e+10	1.363133e+10
6.459709e-04	3.603310e-02	3.670429e+02	-2.608600e+05	1.146603e+12	8.009494e+02	1.270398e+10	1.219360e+10	2.551813e-01	2.449294e-01	1.270393e+10	1.219355e+10
6.791754e-04	3.694528e-02	3.589590e+02	-2.434574e+05	1.038884e+12	7.623985e+02	1.137361e+10	1.090663e+10	2.552975e-01	2.448153e-01	1.137356e+10	1.090658e+10
7.140619e-04	3.788055e-02	3.510546e+02	-2.265741e+05	9.411289e+11	7.256431e+02	1.017981e+10	9.752633e+09	2.554166e-01	2.446984e-01	1.017977e+10	9.752586e+09
7.507141e-04	3.883951e-02	3.433209e+02	-2.110025e+05	8.526351e+11	6.906851e+02	9.111606e+09	8.720828e+09	2.555384e-01	2.445788e-01	9.111560e+09	8.720783e+09
7.892206e-04	3.982273e-02	3.357326e+02	-1.970670e+05	7.724937e+11	6.574246e+02	8.155174e+09	7.797712e+09	2.556630e-01	2.444566e-01	8.155130e+09	7.797669e+09
8.296794e-04	4.083085e-02	3.283095e+02	-1.834731e+05	6.997412e+11	6.257015e+02	7.296509e+09	6.969620e+09	2.557909e-01	2.443312e-01	7.296467e+09	6.969580e+09
8.721893e-04	4.186449e-02	3.210474e+02	-1.708321e+05	6.338427e+11	5.955102e+02	6.528082e+09	6.229160e+09	2.559217e-01	2.442030e-01	6.528042e+09	6.229122e+09
9.168548e-04	4.292429e-02	3.139272e+02	-1.594126e+05	5.741414e+11	5.667714e+02	5.840368e+09	5.567031e+09	2.560556e-01	2.440718e-01	5.840330e+09	5.566995e+09
9.637883e-04	4.401093e-02	3.069478e+02	-1.487078e+05	5.199925e+11	5.393827e+02	5.223606e+09	4.973724e+09	2.561929e-01	2.439374e-01	5.223570e+09	4.973690e+09
1.013106e-03	4.512507e-02	3.001090e+02	-1.386670e+05	4.709222e+11	5.133021e+02	4.670742e+09	4.442353e+09	2.563337e-01	2.437996e-01	4.670708e+09	4.442321e+09
1.064930e-03	4.626741e-02	2.933957e+02	-1.295420e+05	4.264971e+11	4.884910e+02	4.175434e+09	3.966730e+09	2.564781e-01	2.436584e-01	4.175402e+09	3.966700e+09
1.119388e-03	4.743868e-02	2.868146e+02	-1.208461e+05	3.862145e+11	4.648499e+02	3.731001e+09	3.540356e+09	2.566264e-01	2.435134e-01	3.730971e+09	3.540327e+09
1.176618e-03	4.863960e-02	2.803641e+02	-1.127126e+05	3.497235e+11	4.423447e+02	3.332876e+09	3.158770e+09	2.567785e-01	2.433647e-01	3.332847e+09	3.158743e+09
1.236759e-03	4.987091e-02	2.740317e+02	-1.052916e+05	3.166744e+11	4.209252e+02	2.976377e+09	2.817415e+09	2.569346e-01	2.432122e-01	2.976351e+09	2.817389e+09
1.299966e-03	5.113340e-02	2.678276e+02	-9.815508e+04	2.867041e+11	4.005119e+02	2.656747e+09	2.511667e+09	2.570951e-01	2.430556e-01	2.656722e+09	2.511643e+09
1.366394e-03	5.242785e-02	2.617438e+02	-9.158643e+04	2.595746e+11	3.810918e+02	2.370828e+09	2.238448e+09	2.572596e-01	2.428951e-01	2.370805e+09	2.238426e+09
1.436209e-03	5.375507e-02	2.557759e+02	-8.548049e+04	2.349982e+11	3.626025e+02	2.114897e+09	1.994143e+09	2.574287e-01	2.427303e-01	2.114875e+09	1.994122e+09
1.509587e-03	5.511588e-02	2.499294e+02	-7.967747e+04	2.127346e+11	3.449988e+02	1.885811e+09	1.775700e+09	2.576023e-01	2.425610e-01	1.885790e+09	1.775680e+09
1.586705e-03	5.651115e-02	2.441882e+02	-7.444585e+04	1.925943e+11	3.282617e+02	1.681073e+09	1.580690e+09	2.577805e-01	2.423875e-01	1.681053e+09	1.580671e+09
1.667764e-03	5.794173e-02	2.385620e+02	-6.940956e+04	1.743284e+11	3.123076e+02	1.497725e+09	1.406253e+09	2.579639e-01	2.422090e-01	1.497706e+09	1.406235e+09
1.752964e-03	5.940854e-02	2.330477e+02	-6.472230e+04	1.577914e+11	2.971257e+02	1.333925e+09	1.250597e+09	2.581522e-01	2.420258e-01	1.333908e+09	1.250581e+09
1.842518e-03	6.091247e-02	2.276374e+02	-6.041296e+04	1.428208e+11	2.826794e+02	1.187611e+09	1.111725e+09	2.583457e-01	2.418378e-01	1.187595e+09	1.111710e+09
1.936654e-03	6.245448e-02	2.223383e+02	-5.629246e+04	1.292551e+11	2.689195e+02	1.056826e+09	9.877452e+08	2.585446e-01	2.416445e-01	1.056811e+09	9.877313e+08
2.035605e-03	6.403552e-02	2.171429e+02	-5.250487e+04	1.169829e+11	2.558348e+02	9.401553e+08	8.772863e+08	2.587490e-01	2.414462e-01	9.401415e+08	8.772734e+08
2.139619e-03	6.565659e-02	2.120471e+02	-4.899135e+04	1.058731e+11	2.433836e+02	8.360059e+08	7.788107e+08	2.589590e-01	2.412424e-01	8.359930e+08	7.787987e+08
2.248957e-03	6.731869e-02	2.070576e+02	-4.563373e+04	9.581172e+10	2.315303e+02	7.430303e+08	6.910181e+08	2.591752e-01	2.410329e-01	7.430184e+08	6.910071e+08
2.363889e-03	6.902287e-02	2.021640e+02	-4.257814e+04	8.671217e+10	2.202615e+02	6.601969e+08	6.129103e+08	2.593972e-01	2.408179e-01	6.601859e+08	6.129001e+08
2.484708e-03	7.077019e-02	1.973721e+02	-3.966180e+04	7.846764e+10	2.095288e+02	5.863007e+08	5.433286e+08	2.596257e-01	2.405968e-01	5.862905e+08	5.433192e+08
2.611716e-03	7.256175e-02	1.926788e+02	-3.695290e+04	7.100771e+10	1.993202e+02	5.205041e+08	4.814639e+08	2.598604e-01	2.403697e-01	5.204946e+08	4.814551e+08
2.745229e-03	7.439866e-02	1.880811e+02	-3.443587e+04	6.425586e+10	1.896072e+02	4.619235e+08	4.264665e+08	2.601018e-01	2.401365e-01	4.619148e+08	4.264584e+08
2.885586e-03	7.628207e-02	1.835819e+02	-3.205565e+04	5.814286e+10	1.803627e+02	4.097728e+08	3.775809e+08	2.603500e-01	2.398968e-01	4.097647e+08	3.775735e+08
3.033134e-03	7.821316e-02	1.791770e+02	-2.985389e+04	5.261308e+10	1.715716e+02	3.634075e+08	3.341873e+08	2.606051e-01	2.396508e-01	3.634001e+08	3.341805e+08
3.188244e-03	8.019313e-02	1.748649e+02	-2.780020e+04	4.760844e+10	1.632076e+02	3.221776e+08	2.956626e+08	2.608673e-01	2.393981e-01	3.221707e+08	2.956563e+08
3.351306e-03	8.222323e-02	1.706474e+02	-2.586437e+04	4.307842e+10	1.552488e+02	2.855281e+08	2.614751e+08	2.611369e-01	2.391385e-01	2.855218e+08	2.614693e+08
3.522724e-03	8.430472e-02	1.665207e+02	-2.407444e+04	3.898067e+10	1.476805e+02	2.529868e+08	2.311717e+08	2.614138e-01	2.388721e-01	2.529810e+08	2.311664e+08
3.702930e-03	8.643891e-02	1.624854e+02	-2.239215e+04	3.527134e+10	1.404784e+02	2.240865e+08	2.043064e+08	2.616986e-01	2.385984e-01	2.240811e+08	2.043015e+08
3.892374e-03	8.862712e-02	1.585391e+02	-2.083118e+04	3.191547e+10	1.336285e+02	1.984433e+08	1.805119e+08	2.619911e-01	2.383176e-01	1.984384e+08	1.805075e+08
4.091542e-03	9.087073e-02	1.546819e+02	-1.936678e+04	2.887529e+10	1.271047e+02	1.756905e+08	1.594388e+08	2.622917e-01	2.380292e-01	1.756859e+08	1.594347e+08
4.300923e-03	9.317113e-02	1.509114e+02	-1.800766e+04	2.612687e+10	1.209044e+02	1.555173e+08	1.407905e+08	2.626005e-01	2.377333e-01	1.555132e+08	1.407867e+08
4.521036e-03	9.552977e-02	1.472269e+02	-1.673926e+04	2.364126e+10	1.150095e+02	1.376325e+08	1.242900e+08	2.629178e-01	2.374297e-01	1.376287e+08	1.242866e+08
4.752433e-03	9.794812e-02	1.436270e+02	-1.555696e+04	2.139197e+10	1.094016e+02	1.217837e+08	1.096973e+08	2.632436e-01	2.371181e-01	1.217802e+08	1.096942e+08
4.995691e-03	1.004277e-01	1.401106e+02	-1.445543e+04	1.935659e+10	1.040670e+02	1.077438e+08	9.679690e+07	2.635784e-01	2.367984e-01	1.077406e+08	9.679402e+07
5.251419e-03	1.029700e-01	1.366762e+02	-1.343018e+04	1.751481e+10	9.899226e+01	9.531006e+07	8.539648e+07	2.639221e-01	2.364705e-01	9.530711e+07	8.539384e+07
5.520258e-03	1.055767e-01	1.333225e+02	-1.247479e+04	1.584815e+10	9.416461e+01	8.430118e+07	7.532451e+07	2.642751e-01	2.361342e-01	8.429848e+07	7.532210e+07
5.802880e-03	1.082494e-01	1.300480e+02	-1.158587e+04	1.434004e+10	8.957229e+01	7.455693e+07	6.642945e+07	2.646375e-01	2.357893e-01	7.455445e+07	6.642724e+07
6.099993e-03	1.109898e-01	1.268515e+02	-1.075854e+04	1.297540e+10	8.520378e+01	6.593372e+07	5.857578e+07	2.650096e-01	2.354356e-01	6.593144e+07	5.857375e+07
6.412339e-03	1.137995e-01	1.237313e+02	-9.989511e+03	1.174061e+10	8.104830e+01	5.830424e+07	5.164350e+07	2.653916e-01	2.350730e-01	5.830215e+07	5.164165e+07
6.740700e-03	1.166803e-01	1.206861e+02	-9.274213e+03	1.062330e+10	7.709536e+01	5.155481e+07	4.552565e+07	2.657838e-01	2.347013e-01	5.155289e+07	4.552396e+07
